wall_time,elapsed_s,raw_line,value_1,value_2,value_3,value_4,value_5,value_6,value_7,value_8
2026-06-17T10:10:08.671,0.007462,3678,3678.0,,,,,,,
2026-06-17T10:10:08.671,0.008307,3679,3679.0,,,,,,,
2026-06-17T10:10:08.672,0.009281,3677,3677.0,,,,,,,
2026-06-17T10:10:08.673,0.010236,3681,3681.0,,,,,,,
2026-06-17T10:10:08.674,0.011296,2095,2095.0,,,,,,,
2026-06-17T10:10:08.675,0.012024,0,0.0,,,,,,,
2026-06-17T10:10:08.676,0.013090,1,1.0,,,,,,,
2026-06-17T10:10:08.677,0.014066,2,2.0,,,,,,,
2026-06-17T10:10:08.678,0.015077,4,4.0,,,,,,,
2026-06-17T10:10:08.679,0.016069,3,3.0,,,,,,,
2026-06-17T10:10:08.680,0.017118,3,3.0,,,,,,,
2026-06-17T10:10:08.681,0.018051,0,0.0,,,,,,,
2026-06-17T10:10:08.682,0.019142,3678,3678.0,,,,,,,
2026-06-17T10:10:08.683,0.020139,3676,3676.0,,,,,,,
2026-06-17T10:10:08.684,0.021158,3677,3677.0,,,,,,,
2026-06-17T10:10:08.685,0.022175,3678,3678.0,,,,,,,
2026-06-17T10:10:08.686,0.023175,3679,3679.0,,,,,,,
2026-06-17T10:10:08.687,0.024140,3678,3678.0,,,,,,,
2026-06-17T10:10:08.688,0.025086,3679,3679.0,,,,,,,
2026-06-17T10:10:08.689,0.026097,3133,3133.0,,,,,,,
2026-06-17T10:10:08.690,0.027209,2,2.0,,,,,,,
2026-06-17T10:10:08.691,0.028040,3,3.0,,,,,,,
2026-06-17T10:10:08.692,0.029027,4,4.0,,,,,,,
2026-06-17T10:10:08.693,0.030064,3,3.0,,,,,,,
2026-06-17T10:10:08.694,0.031085,4,4.0,,,,,,,
2026-06-17T10:10:08.695,0.032112,3,3.0,,,,,,,
2026-06-17T10:10:08.696,0.033240,3,3.0,,,,,,,
2026-06-17T10:10:08.697,0.034186,4,4.0,,,,,,,
2026-06-17T10:10:08.698,0.035066,1,1.0,,,,,,,
2026-06-17T10:10:08.699,0.036133,3675,3675.0,,,,,,,
2026-06-17T10:10:08.700,0.037106,3675,3675.0,,,,,,,
2026-06-17T10:10:08.701,0.038066,3676,3676.0,,,,,,,
2026-06-17T10:10:08.702,0.039234,3678,3678.0,,,,,,,
2026-06-17T10:10:08.703,0.040070,3679,3679.0,,,,,,,
2026-06-17T10:10:08.704,0.041196,3676,3676.0,,,,,,,
2026-06-17T10:10:08.705,0.041998,3684,3684.0,,,,,,,
2026-06-17T10:10:08.706,0.043123,2,2.0,,,,,,,
2026-06-17T10:10:08.707,0.044049,4,4.0,,,,,,,
2026-06-17T10:10:08.708,0.045032,4,4.0,,,,,,,
2026-06-17T10:10:08.709,0.046134,2,2.0,,,,,,,
2026-06-17T10:10:08.710,0.047008,2,2.0,,,,,,,
2026-06-17T10:10:08.711,0.048076,3,3.0,,,,,,,
2026-06-17T10:10:08.712,0.049057,3,3.0,,,,,,,
2026-06-17T10:10:08.713,0.050031,3,3.0,,,,,,,
2026-06-17T10:10:08.714,0.051015,1,1.0,,,,,,,
2026-06-17T10:10:08.715,0.052071,3677,3677.0,,,,,,,
2026-06-17T10:10:08.716,0.053052,3677,3677.0,,,,,,,
2026-06-17T10:10:08.717,0.054083,3677,3677.0,,,,,,,
2026-06-17T10:10:08.718,0.055081,3676,3676.0,,,,,,,
2026-06-17T10:10:08.719,0.056275,3677,3677.0,,,,,,,
2026-06-17T10:10:08.720,0.057076,3679,3679.0,,,,,,,
2026-06-17T10:10:08.721,0.057991,4,4.0,,,,,,,
2026-06-17T10:10:08.722,0.059043,4,4.0,,,,,,,
2026-06-17T10:10:08.723,0.060103,3,3.0,,,,,,,
2026-06-17T10:10:08.724,0.061043,3,3.0,,,,,,,
2026-06-17T10:10:08.725,0.061978,2,2.0,,,,,,,
2026-06-17T10:10:08.726,0.063187,3,3.0,,,,,,,
2026-06-17T10:10:08.727,0.064052,3,3.0,,,,,,,
2026-06-17T10:10:08.728,0.065062,3,3.0,,,,,,,
2026-06-17T10:10:08.729,0.066053,3,3.0,,,,,,,
2026-06-17T10:10:08.730,0.067001,3,3.0,,,,,,,
2026-06-17T10:10:08.731,0.067984,3,3.0,,,,,,,
2026-06-17T10:10:08.732,0.069085,2,2.0,,,,,,,
2026-06-17T10:10:08.733,0.069988,2,2.0,,,,,,,
2026-06-17T10:10:08.734,0.070992,2,2.0,,,,,,,
2026-06-17T10:10:08.735,0.072025,3,3.0,,,,,,,
2026-06-17T10:10:08.736,0.073018,2,2.0,,,,,,,
2026-06-17T10:10:08.737,0.074017,1,1.0,,,,,,,
2026-06-17T10:10:08.738,0.074980,2,2.0,,,,,,,
2026-06-17T10:10:08.739,0.076009,2,2.0,,,,,,,
2026-06-17T10:10:08.740,0.077047,2,2.0,,,,,,,
2026-06-17T10:10:08.741,0.078061,2,2.0,,,,,,,
2026-06-17T10:10:08.742,0.079054,1,1.0,,,,,,,
2026-06-17T10:10:08.743,0.080039,1,1.0,,,,,,,
2026-06-17T10:10:08.744,0.081073,0,0.0,,,,,,,
2026-06-17T10:10:08.745,0.082054,2,2.0,,,,,,,
2026-06-17T10:10:08.746,0.083043,1,1.0,,,,,,,
2026-06-17T10:10:08.747,0.084090,1,1.0,,,,,,,
2026-06-17T10:10:08.748,0.085063,2,2.0,,,,,,,
2026-06-17T10:10:08.749,0.086053,0,0.0,,,,,,,
2026-06-17T10:10:08.750,0.087056,0,0.0,,,,,,,
2026-06-17T10:10:08.751,0.088080,133,133.0,,,,,,,
2026-06-17T10:10:08.752,0.089093,266,266.0,,,,,,,
2026-06-17T10:10:08.753,0.090091,389,389.0,,,,,,,
2026-06-17T10:10:08.754,0.091067,502,502.0,,,,,,,
2026-06-17T10:10:08.755,0.092086,604,604.0,,,,,,,
2026-06-17T10:10:08.756,0.093072,698,698.0,,,,,,,
2026-06-17T10:10:08.757,0.094130,784,784.0,,,,,,,
2026-06-17T10:10:08.758,0.095053,863,863.0,,,,,,,
2026-06-17T10:10:08.759,0.096136,937,937.0,,,,,,,
2026-06-17T10:10:08.760,0.097048,1004,1004.0,,,,,,,
2026-06-17T10:10:08.761,0.098069,1066,1066.0,,,,,,,
2026-06-17T10:10:08.762,0.099071,1123,1123.0,,,,,,,
2026-06-17T10:10:08.763,0.100306,1176,1176.0,,,,,,,
2026-06-17T10:10:08.764,0.101060,1225,1225.0,,,,,,,
2026-06-17T10:10:08.765,0.102137,1269,1269.0,,,,,,,
2026-06-17T10:10:08.766,0.103266,1311,1311.0,,,,,,,
2026-06-17T10:10:08.767,0.104109,1349,1349.0,,,,,,,
2026-06-17T10:10:08.768,0.105228,1384,1384.0,,,,,,,
2026-06-17T10:10:08.769,0.106239,1419,1419.0,,,,,,,
2026-06-17T10:10:08.770,0.107283,1449,1449.0,,,,,,,
2026-06-17T10:10:08.771,0.108119,1475,1475.0,,,,,,,
2026-06-17T10:10:08.772,0.109105,1501,1501.0,,,,,,,
2026-06-17T10:10:08.773,0.110077,1524,1524.0,,,,,,,
2026-06-17T10:10:08.774,0.111061,1547,1547.0,,,,,,,
2026-06-17T10:10:08.775,0.112084,1566,1566.0,,,,,,,
2026-06-17T10:10:08.776,0.113054,1586,1586.0,,,,,,,
2026-06-17T10:10:08.777,0.114126,1603,1603.0,,,,,,,
2026-06-17T10:10:08.778,0.115173,1617,1617.0,,,,,,,
2026-06-17T10:10:08.779,0.116382,1633,1633.0,,,,,,,
2026-06-17T10:10:08.780,0.117255,1645,1645.0,,,,,,,
2026-06-17T10:10:08.781,0.118166,1660,1660.0,,,,,,,
2026-06-17T10:10:08.782,0.119331,1671,1671.0,,,,,,,
2026-06-17T10:10:08.783,0.120368,1681,1681.0,,,,,,,
2026-06-17T10:10:08.784,0.121188,1694,1694.0,,,,,,,
2026-06-17T10:10:08.785,0.122066,1702,1702.0,,,,,,,
2026-06-17T10:10:08.786,0.123184,1711,1711.0,,,,,,,
2026-06-17T10:10:08.787,0.124073,1718,1718.0,,,,,,,
2026-06-17T10:10:08.788,0.125114,1727,1727.0,,,,,,,
2026-06-17T10:10:08.789,0.126290,1732,1732.0,,,,,,,
2026-06-17T10:10:08.790,0.127086,1740,1740.0,,,,,,,
2026-06-17T10:10:08.791,0.128305,1746,1746.0,,,,,,,
2026-06-17T10:10:08.792,0.129081,1751,1751.0,,,,,,,
2026-06-17T10:10:08.793,0.130064,1757,1757.0,,,,,,,
2026-06-17T10:10:08.794,0.131079,1760,1760.0,,,,,,,
2026-06-17T10:10:08.795,0.132151,1765,1765.0,,,,,,,
2026-06-17T10:10:08.796,0.133012,1770,1770.0,,,,,,,
2026-06-17T10:10:08.797,0.134060,1775,1775.0,,,,,,,
2026-06-17T10:10:08.798,0.135144,1775,1775.0,,,,,,,
2026-06-17T10:10:08.799,0.136163,1781,1781.0,,,,,,,
2026-06-17T10:10:08.800,0.137246,1784,1784.0,,,,,,,
2026-06-17T10:10:08.801,0.138118,1787,1787.0,,,,,,,
2026-06-17T10:10:08.802,0.139090,1789,1789.0,,,,,,,
2026-06-17T10:10:08.803,0.140055,1791,1791.0,,,,,,,
2026-06-17T10:10:08.804,0.141262,1795,1795.0,,,,,,,
2026-06-17T10:10:08.805,0.142313,1797,1797.0,,,,,,,
2026-06-17T10:10:08.806,0.143279,1799,1799.0,,,,,,,
2026-06-17T10:10:08.807,0.144188,1801,1801.0,,,,,,,
2026-06-17T10:10:08.808,0.145226,1802,1802.0,,,,,,,
2026-06-17T10:10:08.809,0.146303,1803,1803.0,,,,,,,
2026-06-17T10:10:08.810,0.147111,1805,1805.0,,,,,,,
2026-06-17T10:10:08.811,0.148128,1805,1805.0,,,,,,,
2026-06-17T10:10:08.812,0.149104,1807,1807.0,,,,,,,
2026-06-17T10:10:08.813,0.150051,1810,1810.0,,,,,,,
2026-06-17T10:10:08.814,0.151058,1809,1809.0,,,,,,,
2026-06-17T10:10:08.815,0.152152,1813,1813.0,,,,,,,
2026-06-17T10:10:08.816,0.153189,1814,1814.0,,,,,,,
2026-06-17T10:10:08.817,0.154130,1814,1814.0,,,,,,,
2026-06-17T10:10:08.818,0.155113,1814,1814.0,,,,,,,
2026-06-17T10:10:08.819,0.156070,1815,1815.0,,,,,,,
2026-06-17T10:10:08.820,0.157059,1816,1816.0,,,,,,,
2026-06-17T10:10:08.821,0.158094,1817,1817.0,,,,,,,
2026-06-17T10:10:08.822,0.159043,1817,1817.0,,,,,,,
2026-06-17T10:10:08.823,0.160050,1819,1819.0,,,,,,,
2026-06-17T10:10:08.824,0.161164,1819,1819.0,,,,,,,
2026-06-17T10:10:08.825,0.162080,1821,1821.0,,,,,,,
2026-06-17T10:10:08.826,0.163094,1821,1821.0,,,,,,,
2026-06-17T10:10:08.827,0.164046,1821,1821.0,,,,,,,
2026-06-17T10:10:08.828,0.165075,1821,1821.0,,,,,,,
2026-06-17T10:10:08.829,0.166106,1822,1822.0,,,,,,,
2026-06-17T10:10:08.830,0.167039,1823,1823.0,,,,,,,
2026-06-17T10:10:08.831,0.168083,1823,1823.0,,,,,,,
2026-06-17T10:10:08.832,0.169038,1824,1824.0,,,,,,,
2026-06-17T10:10:08.833,0.170080,1823,1823.0,,,,,,,
2026-06-17T10:10:08.834,0.171052,1824,1824.0,,,,,,,
2026-06-17T10:10:08.835,0.172055,1824,1824.0,,,,,,,
2026-06-17T10:10:08.836,0.173035,1824,1824.0,,,,,,,
2026-06-17T10:10:08.837,0.174036,1825,1825.0,,,,,,,
2026-06-17T10:10:08.838,0.175066,1826,1826.0,,,,,,,
2026-06-17T10:10:08.839,0.176054,1825,1825.0,,,,,,,
2026-06-17T10:10:08.840,0.177085,1827,1827.0,,,,,,,
2026-06-17T10:10:08.841,0.178040,1826,1826.0,,,,,,,
2026-06-17T10:10:08.842,0.179012,1825,1825.0,,,,,,,
2026-06-17T10:10:08.843,0.180048,1827,1827.0,,,,,,,
2026-06-17T10:10:08.844,0.181089,1828,1828.0,,,,,,,
2026-06-17T10:10:08.845,0.182076,1826,1826.0,,,,,,,
2026-06-17T10:10:08.846,0.183373,1827,1827.0,,,,,,,
2026-06-17T10:10:08.847,0.184000,1827,1827.0,,,,,,,
2026-06-17T10:10:08.848,0.185058,1827,1827.0,,,,,,,
2026-06-17T10:10:08.849,0.186029,1828,1828.0,,,,,,,
2026-06-17T10:10:08.850,0.187024,1828,1828.0,,,,,,,
2026-06-17T10:10:08.851,0.188017,1828,1828.0,,,,,,,
2026-06-17T10:10:08.852,0.189026,1829,1829.0,,,,,,,
2026-06-17T10:10:08.853,0.189991,1830,1830.0,,,,,,,
2026-06-17T10:10:08.854,0.191005,1828,1828.0,,,,,,,
2026-06-17T10:10:08.855,0.192051,1831,1831.0,,,,,,,
2026-06-17T10:10:08.856,0.193007,1829,1829.0,,,,,,,
2026-06-17T10:10:08.857,0.194049,1831,1831.0,,,,,,,
2026-06-17T10:10:08.858,0.195020,1831,1831.0,,,,,,,
2026-06-17T10:10:08.859,0.196048,1829,1829.0,,,,,,,
2026-06-17T10:10:08.860,0.197096,1831,1831.0,,,,,,,
2026-06-17T10:10:08.861,0.198022,1830,1830.0,,,,,,,
2026-06-17T10:10:08.862,0.199072,1830,1830.0,,,,,,,
2026-06-17T10:10:08.863,0.200061,1830,1830.0,,,,,,,
2026-06-17T10:10:08.864,0.201053,1831,1831.0,,,,,,,
2026-06-17T10:10:08.865,0.202069,1830,1830.0,,,,,,,
2026-06-17T10:10:08.866,0.203058,1831,1831.0,,,,,,,
2026-06-17T10:10:08.867,0.204008,1831,1831.0,,,,,,,
2026-06-17T10:10:08.868,0.205040,1830,1830.0,,,,,,,
2026-06-17T10:10:08.869,0.205991,1830,1830.0,,,,,,,
2026-06-17T10:10:08.870,0.206961,1832,1832.0,,,,,,,
2026-06-17T10:10:08.871,0.208022,1832,1832.0,,,,,,,
2026-06-17T10:10:08.872,0.209046,1831,1831.0,,,,,,,
2026-06-17T10:10:08.873,0.210087,1831,1831.0,,,,,,,
2026-06-17T10:10:08.874,0.211034,1830,1830.0,,,,,,,
2026-06-17T10:10:08.875,0.211986,1831,1831.0,,,,,,,
2026-06-17T10:10:08.876,0.213157,1831,1831.0,,,,,,,
2026-06-17T10:10:08.877,0.214084,1831,1831.0,,,,,,,
2026-06-17T10:10:08.878,0.215049,1831,1831.0,,,,,,,
2026-06-17T10:10:08.879,0.216010,1830,1830.0,,,,,,,
2026-06-17T10:10:08.880,0.217053,1833,1833.0,,,,,,,
2026-06-17T10:10:08.881,0.217981,1831,1831.0,,,,,,,
2026-06-17T10:10:08.882,0.219011,1831,1831.0,,,,,,,
2026-06-17T10:10:08.883,0.220011,1832,1832.0,,,,,,,
2026-06-17T10:10:08.884,0.221115,1830,1830.0,,,,,,,
2026-06-17T10:10:08.885,0.222058,1830,1830.0,,,,,,,
2026-06-17T10:10:08.886,0.223064,1831,1831.0,,,,,,,
2026-06-17T10:10:08.887,0.224084,1832,1832.0,,,,,,,
2026-06-17T10:10:08.888,0.225037,1831,1831.0,,,,,,,
2026-06-17T10:10:08.889,0.226004,2241,2241.0,,,,,,,
2026-06-17T10:10:08.890,0.227014,2851,2851.0,,,,,,,
2026-06-17T10:10:08.891,0.228029,3479,3479.0,,,,,,,
2026-06-17T10:10:08.892,0.229023,3517,3517.0,,,,,,,
2026-06-17T10:10:08.893,0.229999,3682,3682.0,,,,,,,
2026-06-17T10:10:08.894,0.231037,3682,3682.0,,,,,,,
2026-06-17T10:10:08.895,0.231952,3682,3682.0,,,,,,,
2026-06-17T10:10:08.896,0.233007,3681,3681.0,,,,,,,
2026-06-17T10:10:08.897,0.234032,3682,3682.0,,,,,,,
2026-06-17T10:10:08.897,0.234180,3682,3682.0,,,,,,,
2026-06-17T10:10:08.898,0.235053,3592,3592.0,,,,,,,
2026-06-17T10:10:08.899,0.236009,3494,3494.0,,,,,,,
2026-06-17T10:10:08.900,0.237010,2792,2792.0,,,,,,,
2026-06-17T10:10:08.901,0.237991,2806,2806.0,,,,,,,
2026-06-17T10:10:08.902,0.239096,1891,1891.0,,,,,,,
2026-06-17T10:10:08.903,0.240090,1697,1697.0,,,,,,,
2026-06-17T10:10:08.904,0.241024,2334,2334.0,,,,,,,
2026-06-17T10:10:08.905,0.242076,2495,2495.0,,,,,,,
2026-06-17T10:10:08.906,0.243093,2767,2767.0,,,,,,,
2026-06-17T10:10:08.907,0.244074,3096,3096.0,,,,,,,
2026-06-17T10:10:08.908,0.245002,3388,3388.0,,,,,,,
2026-06-17T10:10:08.909,0.246036,3324,3324.0,,,,,,,
2026-06-17T10:10:08.910,0.247080,3258,3258.0,,,,,,,
2026-06-17T10:10:08.911,0.248070,3679,3679.0,,,,,,,
2026-06-17T10:10:08.912,0.249117,3683,3683.0,,,,,,,
2026-06-17T10:10:08.913,0.250083,3682,3682.0,,,,,,,
2026-06-17T10:10:08.914,0.251024,3681,3681.0,,,,,,,
2026-06-17T10:10:08.915,0.252043,3681,3681.0,,,,,,,
2026-06-17T10:10:08.916,0.253115,3681,3681.0,,,,,,,
2026-06-17T10:10:08.917,0.254099,3508,3508.0,,,,,,,
2026-06-17T10:10:08.918,0.255066,3178,3178.0,,,,,,,
2026-06-17T10:10:08.919,0.256050,2851,2851.0,,,,,,,
2026-06-17T10:10:08.920,0.257060,3302,3302.0,,,,,,,
2026-06-17T10:10:08.921,0.258067,3679,3679.0,,,,,,,
2026-06-17T10:10:08.922,0.259067,3684,3684.0,,,,,,,
2026-06-17T10:10:08.923,0.260137,3679,3679.0,,,,,,,
2026-06-17T10:10:08.924,0.261026,3679,3679.0,,,,,,,
2026-06-17T10:10:08.925,0.262046,3679,3679.0,,,,,,,
2026-06-17T10:10:08.926,0.263061,3681,3681.0,,,,,,,
2026-06-17T10:10:08.927,0.264130,3679,3679.0,,,,,,,
2026-06-17T10:10:08.928,0.265084,3680,3680.0,,,,,,,
2026-06-17T10:10:08.929,0.266065,3679,3679.0,,,,,,,
2026-06-17T10:10:08.930,0.267127,3679,3679.0,,,,,,,
2026-06-17T10:10:08.931,0.268064,3679,3679.0,,,,,,,
2026-06-17T10:10:08.932,0.269038,3681,3681.0,,,,,,,
2026-06-17T10:10:08.933,0.270058,3628,3628.0,,,,,,,
2026-06-17T10:10:08.934,0.271103,3610,3610.0,,,,,,,
2026-06-17T10:10:08.935,0.272072,2994,2994.0,,,,,,,
2026-06-17T10:10:08.936,0.273072,3510,3510.0,,,,,,,
2026-06-17T10:10:08.937,0.274069,3163,3163.0,,,,,,,
2026-06-17T10:10:08.938,0.274988,2293,2293.0,,,,,,,
2026-06-17T10:10:08.939,0.276021,1679,1679.0,,,,,,,
2026-06-17T10:10:08.940,0.277107,2158,2158.0,,,,,,,
2026-06-17T10:10:08.941,0.278094,2694,2694.0,,,,,,,
2026-06-17T10:10:08.942,0.279085,2127,2127.0,,,,,,,
2026-06-17T10:10:08.943,0.280044,1885,1885.0,,,,,,,
2026-06-17T10:10:08.944,0.281076,2303,2303.0,,,,,,,
2026-06-17T10:10:08.945,0.282057,1900,1900.0,,,,,,,
2026-06-17T10:10:08.946,0.283080,1542,1542.0,,,,,,,
2026-06-17T10:10:08.947,0.284029,895,895.0,,,,,,,
2026-06-17T10:10:08.948,0.285025,840,840.0,,,,,,,
2026-06-17T10:10:08.949,0.286091,596,596.0,,,,,,,
2026-06-17T10:10:08.950,0.287058,242,242.0,,,,,,,
2026-06-17T10:10:08.951,0.288063,787,787.0,,,,,,,
2026-06-17T10:10:08.952,0.289260,2092,2092.0,,,,,,,
2026-06-17T10:10:08.953,0.290081,3279,3279.0,,,,,,,
2026-06-17T10:10:08.954,0.291084,3172,3172.0,,,,,,,
2026-06-17T10:10:08.955,0.292051,2983,2983.0,,,,,,,
2026-06-17T10:10:08.956,0.293074,2927,2927.0,,,,,,,
2026-06-17T10:10:08.957,0.294062,2470,2470.0,,,,,,,
2026-06-17T10:10:08.958,0.295045,1525,1525.0,,,,,,,
2026-06-17T10:10:08.959,0.296050,1356,1356.0,,,,,,,
2026-06-17T10:10:08.960,0.297021,1480,1480.0,,,,,,,
2026-06-17T10:10:08.961,0.298001,2332,2332.0,,,,,,,
2026-06-17T10:10:08.962,0.298989,2085,2085.0,,,,,,,
2026-06-17T10:10:08.963,0.300149,1410,1410.0,,,,,,,
2026-06-17T10:10:08.964,0.301067,1283,1283.0,,,,,,,
2026-06-17T10:10:08.965,0.302063,690,690.0,,,,,,,
2026-06-17T10:10:08.966,0.303038,438,438.0,,,,,,,
2026-06-17T10:10:08.967,0.304078,24,24.0,,,,,,,
2026-06-17T10:10:08.968,0.305119,437,437.0,,,,,,,
2026-06-17T10:10:08.969,0.306151,1737,1737.0,,,,,,,
2026-06-17T10:10:08.970,0.307087,3143,3143.0,,,,,,,
2026-06-17T10:10:08.971,0.308161,3681,3681.0,,,,,,,
2026-06-17T10:10:08.972,0.309069,3683,3683.0,,,,,,,
2026-06-17T10:10:08.973,0.310123,3261,3261.0,,,,,,,
2026-06-17T10:10:08.974,0.311097,2692,2692.0,,,,,,,
2026-06-17T10:10:08.975,0.312057,2278,2278.0,,,,,,,
2026-06-17T10:10:08.976,0.313055,1987,1987.0,,,,,,,
2026-06-17T10:10:08.977,0.314122,2330,2330.0,,,,,,,
2026-06-17T10:10:08.978,0.315106,3287,3287.0,,,,,,,
2026-06-17T10:10:08.979,0.316032,2580,2580.0,,,,,,,
2026-06-17T10:10:08.980,0.317103,1530,1530.0,,,,,,,
2026-06-17T10:10:08.981,0.318046,1361,1361.0,,,,,,,
2026-06-17T10:10:08.982,0.318967,1194,1194.0,,,,,,,
2026-06-17T10:10:08.983,0.320051,517,517.0,,,,,,,
2026-06-17T10:10:08.984,0.321113,559,559.0,,,,,,,
2026-06-17T10:10:08.985,0.322046,1481,1481.0,,,,,,,
2026-06-17T10:10:08.986,0.323078,2229,2229.0,,,,,,,
2026-06-17T10:10:08.987,0.324077,2506,2506.0,,,,,,,
2026-06-17T10:10:08.988,0.325074,2939,2939.0,,,,,,,
2026-06-17T10:10:08.989,0.326031,2952,2952.0,,,,,,,
2026-06-17T10:10:08.990,0.327071,3069,3069.0,,,,,,,
2026-06-17T10:10:08.991,0.328096,2809,2809.0,,,,,,,
2026-06-17T10:10:08.992,0.329040,2581,2581.0,,,,,,,
2026-06-17T10:10:08.993,0.330064,2691,2691.0,,,,,,,
2026-06-17T10:10:08.994,0.331223,3682,3682.0,,,,,,,
2026-06-17T10:10:08.995,0.332219,3471,3471.0,,,,,,,
2026-06-17T10:10:08.996,0.333291,2568,2568.0,,,,,,,
2026-06-17T10:10:08.997,0.334352,1639,1639.0,,,,,,,
2026-06-17T10:10:08.998,0.335314,1262,1262.0,,,,,,,
2026-06-17T10:10:08.999,0.336088,930,930.0,,,,,,,
2026-06-17T10:10:09.000,0.337268,555,555.0,,,,,,,
2026-06-17T10:10:09.001,0.338069,701,701.0,,,,,,,
2026-06-17T10:10:09.002,0.339043,1221,1221.0,,,,,,,
2026-06-17T10:10:09.003,0.340151,2169,2169.0,,,,,,,
2026-06-17T10:10:09.004,0.341057,2515,2515.0,,,,,,,
2026-06-17T10:10:09.005,0.342108,2538,2538.0,,,,,,,
2026-06-17T10:10:09.006,0.343084,2414,2414.0,,,,,,,
2026-06-17T10:10:09.007,0.344284,2266,2266.0,,,,,,,
2026-06-17T10:10:09.009,0.345424,1883,1883.0,,,,,,,
2026-06-17T10:10:09.009,0.346177,1564,1564.0,,,,,,,
2026-06-17T10:10:09.010,0.347374,1566,1566.0,,,,,,,
2026-06-17T10:10:09.011,0.348143,2231,2231.0,,,,,,,
2026-06-17T10:10:09.012,0.349293,2189,2189.0,,,,,,,
2026-06-17T10:10:09.013,0.350187,1899,1899.0,,,,,,,
2026-06-17T10:10:09.014,0.351386,1372,1372.0,,,,,,,
2026-06-17T10:10:09.015,0.352274,1305,1305.0,,,,,,,
2026-06-17T10:10:09.016,0.353162,1116,1116.0,,,,,,,
2026-06-17T10:10:09.017,0.354096,1071,1071.0,,,,,,,
2026-06-17T10:10:09.018,0.355069,1576,1576.0,,,,,,,
2026-06-17T10:10:09.019,0.356134,2299,2299.0,,,,,,,
2026-06-17T10:10:09.020,0.357038,3027,3027.0,,,,,,,
2026-06-17T10:10:09.021,0.358091,3245,3245.0,,,,,,,
2026-06-17T10:10:09.022,0.359043,3147,3147.0,,,,,,,
2026-06-17T10:10:09.023,0.360102,2996,2996.0,,,,,,,
2026-06-17T10:10:09.024,0.361158,2937,2937.0,,,,,,,
2026-06-17T10:10:09.025,0.362158,2758,2758.0,,,,,,,
2026-06-17T10:10:09.026,0.363153,2476,2476.0,,,,,,,
2026-06-17T10:10:09.027,0.364293,2579,2579.0,,,,,,,
2026-06-17T10:10:09.028,0.365096,2949,2949.0,,,,,,,
2026-06-17T10:10:09.029,0.366121,2611,2611.0,,,,,,,
2026-06-17T10:10:09.030,0.367102,2068,2068.0,,,,,,,
2026-06-17T10:10:09.031,0.368058,1665,1665.0,,,,,,,
2026-06-17T10:10:09.032,0.369130,1491,1491.0,,,,,,,
2026-06-17T10:10:09.033,0.370117,1280,1280.0,,,,,,,
2026-06-17T10:10:09.034,0.371132,1315,1315.0,,,,,,,
2026-06-17T10:10:09.035,0.372122,1677,1677.0,,,,,,,
2026-06-17T10:10:09.037,0.373454,2179,2179.0,,,,,,,
2026-06-17T10:10:09.037,0.374018,2453,2453.0,,,,,,,
2026-06-17T10:10:09.038,0.375040,2533,2533.0,,,,,,,
2026-06-17T10:10:09.039,0.376120,2377,2377.0,,,,,,,
2026-06-17T10:10:09.040,0.377101,2290,2290.0,,,,,,,
2026-06-17T10:10:09.042,0.379055,2043,2043.0,,,,,,,
2026-06-17T10:10:09.042,0.379216,1781,1781.0,,,,,,,
2026-06-17T10:10:09.043,0.380117,1638,1638.0,,,,,,,
2026-06-17T10:10:09.044,0.381117,1947,1947.0,,,,,,,
2026-06-17T10:10:09.045,0.382020,2080,2080.0,,,,,,,
2026-06-17T10:10:09.046,0.383033,1871,1871.0,,,,,,,
2026-06-17T10:10:09.047,0.384031,1429,1429.0,,,,,,,
2026-06-17T10:10:09.048,0.385004,1319,1319.0,,,,,,,
2026-06-17T10:10:09.049,0.386099,1260,1260.0,,,,,,,
2026-06-17T10:10:09.050,0.387043,1121,1121.0,,,,,,,
2026-06-17T10:10:09.051,0.388085,1211,1211.0,,,,,,,
2026-06-17T10:10:09.052,0.389167,1519,1519.0,,,,,,,
2026-06-17T10:10:09.053,0.390124,1962,1962.0,,,,,,,
2026-06-17T10:10:09.054,0.391075,2142,2142.0,,,,,,,
2026-06-17T10:10:09.055,0.392119,2173,2173.0,,,,,,,
2026-06-17T10:10:09.056,0.393060,2087,2087.0,,,,,,,
2026-06-17T10:10:09.057,0.394073,1987,1987.0,,,,,,,
2026-06-17T10:10:09.058,0.395118,1875,1875.0,,,,,,,
2026-06-17T10:10:09.059,0.395943,1775,1775.0,,,,,,,
2026-06-17T10:10:09.060,0.397130,1674,1674.0,,,,,,,
2026-06-17T10:10:09.061,0.398076,1965,1965.0,,,,,,,
2026-06-17T10:10:09.062,0.399059,1945,1945.0,,,,,,,
2026-06-17T10:10:09.063,0.400033,1807,1807.0,,,,,,,
2026-06-17T10:10:09.064,0.401147,1463,1463.0,,,,,,,
2026-06-17T10:10:09.065,0.402118,1403,1403.0,,,,,,,
2026-06-17T10:10:09.066,0.403014,1344,1344.0,,,,,,,
2026-06-17T10:10:09.067,0.404005,1263,1263.0,,,,,,,
2026-06-17T10:10:09.068,0.405062,1426,1426.0,,,,,,,
2026-06-17T10:10:09.069,0.406120,1704,1704.0,,,,,,,
2026-06-17T10:10:09.070,0.407095,2011,2011.0,,,,,,,
2026-06-17T10:10:09.071,0.408227,2089,2089.0,,,,,,,
2026-06-17T10:10:09.072,0.409112,2048,2048.0,,,,,,,
2026-06-17T10:10:09.073,0.410054,1998,1998.0,,,,,,,
2026-06-17T10:10:09.074,0.411086,1957,1957.0,,,,,,,
2026-06-17T10:10:09.075,0.412060,1865,1865.0,,,,,,,
2026-06-17T10:10:09.076,0.413065,1777,1777.0,,,,,,,
2026-06-17T10:10:09.077,0.414096,1893,1893.0,,,,,,,
2026-06-17T10:10:09.078,0.415021,2207,2207.0,,,,,,,
2026-06-17T10:10:09.079,0.416186,2149,2149.0,,,,,,,
2026-06-17T10:10:09.080,0.417060,1985,1985.0,,,,,,,
2026-06-17T10:10:09.081,0.418028,1733,1733.0,,,,,,,
2026-06-17T10:10:09.082,0.419097,1737,1737.0,,,,,,,
2026-06-17T10:10:09.083,0.420104,1654,1654.0,,,,,,,
2026-06-17T10:10:09.084,0.421108,1707,1707.0,,,,,,,
2026-06-17T10:10:09.085,0.422032,1903,1903.0,,,,,,,
2026-06-17T10:10:09.086,0.423098,2156,2156.0,,,,,,,
2026-06-17T10:10:09.087,0.424140,2317,2317.0,,,,,,,
2026-06-17T10:10:09.088,0.425078,2331,2331.0,,,,,,,
2026-06-17T10:10:09.089,0.426089,2284,2284.0,,,,,,,
2026-06-17T10:10:09.090,0.427081,2267,2267.0,,,,,,,
2026-06-17T10:10:09.091,0.428038,2340,2340.0,,,,,,,
2026-06-17T10:10:09.092,0.429078,2429,2429.0,,,,,,,
2026-06-17T10:10:09.093,0.430078,2452,2452.0,,,,,,,
2026-06-17T10:10:09.094,0.431017,2468,2468.0,,,,,,,
2026-06-17T10:10:09.095,0.432162,2439,2439.0,,,,,,,
2026-06-17T10:10:09.096,0.433075,2296,2296.0,,,,,,,
2026-06-17T10:10:09.097,0.434174,2074,2074.0,,,,,,,
2026-06-17T10:10:09.098,0.435080,1834,1834.0,,,,,,,
2026-06-17T10:10:09.099,0.436073,1655,1655.0,,,,,,,
2026-06-17T10:10:09.100,0.437103,1568,1568.0,,,,,,,
2026-06-17T10:10:09.101,0.438005,1607,1607.0,,,,,,,
2026-06-17T10:10:09.102,0.439043,1719,1719.0,,,,,,,
2026-06-17T10:10:09.103,0.440116,1783,1783.0,,,,,,,
2026-06-17T10:10:09.104,0.441027,1727,1727.0,,,,,,,
2026-06-17T10:10:09.105,0.442062,1741,1741.0,,,,,,,
2026-06-17T10:10:09.106,0.443113,1694,1694.0,,,,,,,
2026-06-17T10:10:09.107,0.444109,1678,1678.0,,,,,,,
2026-06-17T10:10:09.108,0.445150,1590,1590.0,,,,,,,
2026-06-17T10:10:09.109,0.446010,1555,1555.0,,,,,,,
2026-06-17T10:10:09.110,0.447008,1595,1595.0,,,,,,,
2026-06-17T10:10:09.111,0.448055,1756,1756.0,,,,,,,
2026-06-17T10:10:09.112,0.449052,1753,1753.0,,,,,,,
2026-06-17T10:10:09.113,0.450041,1627,1627.0,,,,,,,
2026-06-17T10:10:09.114,0.451060,1512,1512.0,,,,,,,
2026-06-17T10:10:09.115,0.452101,1599,1599.0,,,,,,,
2026-06-17T10:10:09.116,0.453091,1631,1631.0,,,,,,,
2026-06-17T10:10:09.117,0.454084,1679,1679.0,,,,,,,
2026-06-17T10:10:09.118,0.455090,1960,1960.0,,,,,,,
2026-06-17T10:10:09.119,0.456100,2236,2236.0,,,,,,,
2026-06-17T10:10:09.120,0.457089,2234,2234.0,,,,,,,
2026-06-17T10:10:09.121,0.458078,2204,2204.0,,,,,,,
2026-06-17T10:10:09.122,0.459056,2105,2105.0,,,,,,,
2026-06-17T10:10:09.123,0.460061,2002,2002.0,,,,,,,
2026-06-17T10:10:09.124,0.461081,1899,1899.0,,,,,,,
2026-06-17T10:10:09.125,0.462078,1619,1619.0,,,,,,,
2026-06-17T10:10:09.126,0.463107,1386,1386.0,,,,,,,
2026-06-17T10:10:09.127,0.464274,1290,1290.0,,,,,,,
2026-06-17T10:10:09.128,0.465222,1435,1435.0,,,,,,,
2026-06-17T10:10:09.129,0.466145,1434,1434.0,,,,,,,
2026-06-17T10:10:09.130,0.467166,1409,1409.0,,,,,,,
2026-06-17T10:10:09.131,0.468156,1404,1404.0,,,,,,,
2026-06-17T10:10:09.132,0.469225,1515,1515.0,,,,,,,
2026-06-17T10:10:09.133,0.470211,1589,1589.0,,,,,,,
2026-06-17T10:10:09.134,0.471100,1711,1711.0,,,,,,,
2026-06-17T10:10:09.135,0.472109,1930,1930.0,,,,,,,
2026-06-17T10:10:09.136,0.473249,2251,2251.0,,,,,,,
2026-06-17T10:10:09.137,0.474168,2516,2516.0,,,,,,,
2026-06-17T10:10:09.138,0.475270,2515,2515.0,,,,,,,
2026-06-17T10:10:09.139,0.476175,2546,2546.0,,,,,,,
2026-06-17T10:10:09.140,0.477062,2580,2580.0,,,,,,,
2026-06-17T10:10:09.141,0.478106,2551,2551.0,,,,,,,
2026-06-17T10:10:09.142,0.479078,2450,2450.0,,,,,,,
2026-06-17T10:10:09.143,0.480157,2403,2403.0,,,,,,,
2026-06-17T10:10:09.144,0.481107,2334,2334.0,,,,,,,
2026-06-17T10:10:09.145,0.482140,2295,2295.0,,,,,,,
2026-06-17T10:10:09.146,0.483164,2154,2154.0,,,,,,,
2026-06-17T10:10:09.147,0.484199,1995,1995.0,,,,,,,
2026-06-17T10:10:09.148,0.485183,1907,1907.0,,,,,,,
2026-06-17T10:10:09.149,0.486149,1845,1845.0,,,,,,,
2026-06-17T10:10:09.150,0.487213,1761,1761.0,,,,,,,
2026-06-17T10:10:09.151,0.488088,1737,1737.0,,,,,,,
2026-06-17T10:10:09.152,0.489112,1775,1775.0,,,,,,,
2026-06-17T10:10:09.153,0.490053,1839,1839.0,,,,,,,
2026-06-17T10:10:09.154,0.491045,1839,1839.0,,,,,,,
2026-06-17T10:10:09.155,0.492013,1834,1834.0,,,,,,,
2026-06-17T10:10:09.156,0.493014,1812,1812.0,,,,,,,
2026-06-17T10:10:09.157,0.494185,1843,1843.0,,,,,,,
2026-06-17T10:10:09.158,0.495079,1867,1867.0,,,,,,,
2026-06-17T10:10:09.159,0.496104,1855,1855.0,,,,,,,
2026-06-17T10:10:09.160,0.497196,1878,1878.0,,,,,,,
2026-06-17T10:10:09.161,0.498060,1954,1954.0,,,,,,,
2026-06-17T10:10:09.162,0.499033,1987,1987.0,,,,,,,
2026-06-17T10:10:09.163,0.500225,1963,1963.0,,,,,,,
2026-06-17T10:10:09.164,0.501055,1894,1894.0,,,,,,,
2026-06-17T10:10:09.165,0.501982,1884,1884.0,,,,,,,
2026-06-17T10:10:09.166,0.503051,1856,1856.0,,,,,,,
2026-06-17T10:10:09.167,0.504084,1790,1790.0,,,,,,,
2026-06-17T10:10:09.168,0.505051,1751,1751.0,,,,,,,
2026-06-17T10:10:09.169,0.505990,1733,1733.0,,,,,,,
2026-06-17T10:10:09.170,0.507034,1653,1653.0,,,,,,,
2026-06-17T10:10:09.171,0.508057,1599,1599.0,,,,,,,
2026-06-17T10:10:09.172,0.509036,1615,1615.0,,,,,,,
2026-06-17T10:10:09.173,0.510042,1662,1662.0,,,,,,,
2026-06-17T10:10:09.174,0.511054,1741,1741.0,,,,,,,
2026-06-17T10:10:09.175,0.512059,1750,1750.0,,,,,,,
2026-06-17T10:10:09.176,0.513082,1763,1763.0,,,,,,,
2026-06-17T10:10:09.177,0.514009,1746,1746.0,,,,,,,
2026-06-17T10:10:09.178,0.515054,1733,1733.0,,,,,,,
2026-06-17T10:10:09.179,0.516168,1754,1754.0,,,,,,,
2026-06-17T10:10:09.180,0.517083,1803,1803.0,,,,,,,
2026-06-17T10:10:09.181,0.518074,1890,1890.0,,,,,,,
2026-06-17T10:10:09.182,0.519084,1986,1986.0,,,,,,,
2026-06-17T10:10:09.183,0.520031,1949,1949.0,,,,,,,
2026-06-17T10:10:09.184,0.521025,1909,1909.0,,,,,,,
2026-06-17T10:10:09.185,0.522081,1893,1893.0,,,,,,,
2026-06-17T10:10:09.186,0.523191,1822,1822.0,,,,,,,
2026-06-17T10:10:09.187,0.524122,1847,1847.0,,,,,,,
2026-06-17T10:10:09.188,0.525151,1916,1916.0,,,,,,,
2026-06-17T10:10:09.189,0.526162,1910,1910.0,,,,,,,
2026-06-17T10:10:09.190,0.527242,1935,1935.0,,,,,,,
2026-06-17T10:10:09.191,0.528155,1940,1940.0,,,,,,,
2026-06-17T10:10:09.192,0.529229,1916,1916.0,,,,,,,
2026-06-17T10:10:09.193,0.530228,1806,1806.0,,,,,,,
2026-06-17T10:10:09.194,0.531194,1879,1879.0,,,,,,,
2026-06-17T10:10:09.195,0.532144,1866,1866.0,,,,,,,
2026-06-17T10:10:09.196,0.533153,1838,1838.0,,,,,,,
2026-06-17T10:10:09.197,0.534054,1743,1743.0,,,,,,,
2026-06-17T10:10:09.197,0.534206,1727,1727.0,,,,,,,
2026-06-17T10:10:09.199,0.535706,1685,1685.0,,,,,,,
2026-06-17T10:10:09.199,0.536163,1605,1605.0,,,,,,,
2026-06-17T10:10:09.200,0.537321,1550,1550.0,,,,,,,
2026-06-17T10:10:09.201,0.538291,1590,1590.0,,,,,,,
2026-06-17T10:10:09.202,0.539072,1700,1700.0,,,,,,,
2026-06-17T10:10:09.203,0.540045,1765,1765.0,,,,,,,
2026-06-17T10:10:09.204,0.541095,1907,1907.0,,,,,,,
2026-06-17T10:10:09.205,0.542201,2041,2041.0,,,,,,,
2026-06-17T10:10:09.206,0.543139,2110,2110.0,,,,,,,
2026-06-17T10:10:09.207,0.544106,2055,2055.0,,,,,,,
2026-06-17T10:10:09.208,0.545102,2003,2003.0,,,,,,,
2026-06-17T10:10:09.209,0.546062,1925,1925.0,,,,,,,
2026-06-17T10:10:09.210,0.547094,1917,1917.0,,,,,,,
2026-06-17T10:10:09.212,0.549007,1926,1926.0,,,,,,,
2026-06-17T10:10:09.212,0.549149,1922,1922.0,,,,,,,
2026-06-17T10:10:09.213,0.550195,1882,1882.0,,,,,,,
2026-06-17T10:10:09.214,0.551280,1853,1853.0,,,,,,,
2026-06-17T10:10:09.215,0.552227,1819,1819.0,,,,,,,
2026-06-17T10:10:09.216,0.553119,1774,1774.0,,,,,,,
2026-06-17T10:10:09.217,0.554161,1743,1743.0,,,,,,,
2026-06-17T10:10:09.218,0.555124,1734,1734.0,,,,,,,
2026-06-17T10:10:09.219,0.556060,1774,1774.0,,,,,,,
2026-06-17T10:10:09.220,0.557105,1806,1806.0,,,,,,,
2026-06-17T10:10:09.221,0.558086,1843,1843.0,,,,,,,
2026-06-17T10:10:09.222,0.559110,1882,1882.0,,,,,,,
2026-06-17T10:10:09.223,0.560032,1859,1859.0,,,,,,,
2026-06-17T10:10:09.224,0.561283,1842,1842.0,,,,,,,
2026-06-17T10:10:09.225,0.562133,1812,1812.0,,,,,,,
2026-06-17T10:10:09.226,0.563132,1807,1807.0,,,,,,,
2026-06-17T10:10:09.227,0.564103,1838,1838.0,,,,,,,
2026-06-17T10:10:09.228,0.565100,1718,1718.0,,,,,,,
2026-06-17T10:10:09.229,0.566097,1578,1578.0,,,,,,,
2026-06-17T10:10:09.230,0.567109,1499,1499.0,,,,,,,
2026-06-17T10:10:09.231,0.568154,1443,1443.0,,,,,,,
2026-06-17T10:10:09.232,0.569075,1406,1406.0,,,,,,,
2026-06-17T10:10:09.233,0.570173,1359,1359.0,,,,,,,
2026-06-17T10:10:09.234,0.571183,1346,1346.0,,,,,,,
2026-06-17T10:10:09.235,0.572014,1293,1293.0,,,,,,,
2026-06-17T10:10:09.236,0.573304,1185,1185.0,,,,,,,
2026-06-17T10:10:09.237,0.574257,1088,1088.0,,,,,,,
2026-06-17T10:10:09.238,0.575015,961,961.0,,,,,,,
2026-06-17T10:10:09.239,0.576110,1005,1005.0,,,,,,,
2026-06-17T10:10:09.240,0.577061,996,996.0,,,,,,,
2026-06-17T10:10:09.241,0.578138,1002,1002.0,,,,,,,
2026-06-17T10:10:09.242,0.579109,1075,1075.0,,,,,,,
2026-06-17T10:10:09.243,0.580154,1223,1223.0,,,,,,,
2026-06-17T10:10:09.244,0.581138,1499,1499.0,,,,,,,
2026-06-17T10:10:09.245,0.582106,1779,1779.0,,,,,,,
2026-06-17T10:10:09.246,0.583051,1906,1906.0,,,,,,,
2026-06-17T10:10:09.247,0.584065,2011,2011.0,,,,,,,
2026-06-17T10:10:09.248,0.585241,2046,2046.0,,,,,,,
2026-06-17T10:10:09.249,0.586247,2025,2025.0,,,,,,,
2026-06-17T10:10:09.250,0.587094,1961,1961.0,,,,,,,
2026-06-17T10:10:09.251,0.588181,1935,1935.0,,,,,,,
2026-06-17T10:10:09.252,0.589238,1595,1595.0,,,,,,,
2026-06-17T10:10:09.253,0.590243,1219,1219.0,,,,,,,
2026-06-17T10:10:09.254,0.591098,1391,1391.0,,,,,,,
2026-06-17T10:10:09.255,0.592154,1284,1284.0,,,,,,,
2026-06-17T10:10:09.256,0.593130,1322,1322.0,,,,,,,
2026-06-17T10:10:09.257,0.594093,1481,1481.0,,,,,,,
2026-06-17T10:10:09.258,0.595109,1541,1541.0,,,,,,,
2026-06-17T10:10:09.259,0.596097,1634,1634.0,,,,,,,
2026-06-17T10:10:09.260,0.597106,1791,1791.0,,,,,,,
2026-06-17T10:10:09.261,0.598068,1976,1976.0,,,,,,,
2026-06-17T10:10:09.262,0.599075,2131,2131.0,,,,,,,
2026-06-17T10:10:09.263,0.600103,2348,2348.0,,,,,,,
2026-06-17T10:10:09.264,0.601126,2392,2392.0,,,,,,,
2026-06-17T10:10:09.265,0.602326,2287,2287.0,,,,,,,
2026-06-17T10:10:09.266,0.603251,2287,2287.0,,,,,,,
2026-06-17T10:10:09.267,0.603993,2246,2246.0,,,,,,,
2026-06-17T10:10:09.268,0.605112,1142,1142.0,,,,,,,
2026-06-17T10:10:09.269,0.606075,1204,1204.0,,,,,,,
2026-06-17T10:10:09.270,0.607116,2010,2010.0,,,,,,,
2026-06-17T10:10:09.271,0.608093,2549,2549.0,,,,,,,
2026-06-17T10:10:09.272,0.609113,2671,2671.0,,,,,,,
2026-06-17T10:10:09.273,0.610219,2614,2614.0,,,,,,,
2026-06-17T10:10:09.274,0.611224,3683,3683.0,,,,,,,
2026-06-17T10:10:09.275,0.612245,3681,3681.0,,,,,,,
2026-06-17T10:10:09.276,0.613107,3681,3681.0,,,,,,,
2026-06-17T10:10:09.277,0.614244,3679,3679.0,,,,,,,
2026-06-17T10:10:09.278,0.615270,3682,3682.0,,,,,,,
2026-06-17T10:10:09.279,0.616228,3446,3446.0,,,,,,,
2026-06-17T10:10:09.280,0.617270,3420,3420.0,,,,,,,
2026-06-17T10:10:09.281,0.618250,3466,3466.0,,,,,,,
2026-06-17T10:10:09.282,0.619084,3499,3499.0,,,,,,,
2026-06-17T10:10:09.283,0.620073,3682,3682.0,,,,,,,
2026-06-17T10:10:09.284,0.621149,3116,3116.0,,,,,,,
2026-06-17T10:10:09.285,0.622112,2208,2208.0,,,,,,,
2026-06-17T10:10:09.286,0.623098,1694,1694.0,,,,,,,
2026-06-17T10:10:09.287,0.624105,961,961.0,,,,,,,
2026-06-17T10:10:09.288,0.625094,786,786.0,,,,,,,
2026-06-17T10:10:09.289,0.626119,668,668.0,,,,,,,
2026-06-17T10:10:09.290,0.627131,1064,1064.0,,,,,,,
2026-06-17T10:10:09.291,0.628085,1237,1237.0,,,,,,,
2026-06-17T10:10:09.292,0.629114,803,803.0,,,,,,,
2026-06-17T10:10:09.293,0.630114,1499,1499.0,,,,,,,
2026-06-17T10:10:09.294,0.630999,1601,1601.0,,,,,,,
2026-06-17T10:10:09.295,0.632100,1715,1715.0,,,,,,,
2026-06-17T10:10:09.296,0.633092,2632,2632.0,,,,,,,
2026-06-17T10:10:09.297,0.634094,3333,3333.0,,,,,,,
2026-06-17T10:10:09.298,0.635096,3267,3267.0,,,,,,,
2026-06-17T10:10:09.299,0.636136,2648,2648.0,,,,,,,
2026-06-17T10:10:09.300,0.637079,3124,3124.0,,,,,,,
2026-06-17T10:10:09.301,0.638081,3477,3477.0,,,,,,,
2026-06-17T10:10:09.302,0.639081,2751,2751.0,,,,,,,
2026-06-17T10:10:09.303,0.640121,2522,2522.0,,,,,,,
2026-06-17T10:10:09.304,0.641092,3112,3112.0,,,,,,,
2026-06-17T10:10:09.305,0.642106,3111,3111.0,,,,,,,
2026-06-17T10:10:09.306,0.643161,2977,2977.0,,,,,,,
2026-06-17T10:10:09.307,0.644151,2767,2767.0,,,,,,,
2026-06-17T10:10:09.309,0.645568,2379,2379.0,,,,,,,
2026-06-17T10:10:09.309,0.646127,2270,2270.0,,,,,,,
2026-06-17T10:10:09.310,0.647028,1583,1583.0,,,,,,,
2026-06-17T10:10:09.311,0.648110,1029,1029.0,,,,,,,
2026-06-17T10:10:09.312,0.649101,1545,1545.0,,,,,,,
2026-06-17T10:10:09.313,0.650089,1649,1649.0,,,,,,,
2026-06-17T10:10:09.314,0.651068,1935,1935.0,,,,,,,
2026-06-17T10:10:09.315,0.652059,1975,1975.0,,,,,,,
2026-06-17T10:10:09.316,0.653086,1839,1839.0,,,,,,,
2026-06-17T10:10:09.317,0.654133,542,542.0,,,,,,,
2026-06-17T10:10:09.318,0.655063,379,379.0,,,,,,,
2026-06-17T10:10:09.319,0.656052,83,83.0,,,,,,,
2026-06-17T10:10:09.320,0.657038,198,198.0,,,,,,,
2026-06-17T10:10:09.321,0.658026,1044,1044.0,,,,,,,
2026-06-17T10:10:09.322,0.659086,1029,1029.0,,,,,,,
2026-06-17T10:10:09.323,0.660096,1542,1542.0,,,,,,,
2026-06-17T10:10:09.324,0.661079,1796,1796.0,,,,,,,
2026-06-17T10:10:09.325,0.662073,2439,2439.0,,,,,,,
2026-06-17T10:10:09.326,0.663077,3183,3183.0,,,,,,,
2026-06-17T10:10:09.327,0.664088,3431,3431.0,,,,,,,
2026-06-17T10:10:09.328,0.665073,2579,2579.0,,,,,,,
2026-06-17T10:10:09.329,0.666159,2317,2317.0,,,,,,,
2026-06-17T10:10:09.330,0.667067,2024,2024.0,,,,,,,
2026-06-17T10:10:09.331,0.668077,1600,1600.0,,,,,,,
2026-06-17T10:10:09.332,0.669079,1143,1143.0,,,,,,,
2026-06-17T10:10:09.333,0.670086,1142,1142.0,,,,,,,
2026-06-17T10:10:09.334,0.671094,1212,1212.0,,,,,,,
2026-06-17T10:10:09.335,0.672044,910,910.0,,,,,,,
2026-06-17T10:10:09.336,0.673033,875,875.0,,,,,,,
2026-06-17T10:10:09.337,0.674113,1391,1391.0,,,,,,,
2026-06-17T10:10:09.338,0.675271,2006,2006.0,,,,,,,
2026-06-17T10:10:09.339,0.676176,1895,1895.0,,,,,,,
2026-06-17T10:10:09.340,0.677167,1970,1970.0,,,,,,,
2026-06-17T10:10:09.341,0.678067,2039,2039.0,,,,,,,
2026-06-17T10:10:09.342,0.679113,2511,2511.0,,,,,,,
2026-06-17T10:10:09.343,0.680098,2205,2205.0,,,,,,,
2026-06-17T10:10:09.344,0.681024,2095,2095.0,,,,,,,
2026-06-17T10:10:09.345,0.682109,2206,2206.0,,,,,,,
2026-06-17T10:10:09.346,0.683080,2381,2381.0,,,,,,,
2026-06-17T10:10:09.347,0.684112,1915,1915.0,,,,,,,
2026-06-17T10:10:09.348,0.685036,1523,1523.0,,,,,,,
2026-06-17T10:10:09.349,0.686082,1336,1336.0,,,,,,,
2026-06-17T10:10:09.350,0.687061,1602,1602.0,,,,,,,
2026-06-17T10:10:09.351,0.688057,1149,1149.0,,,,,,,
2026-06-17T10:10:09.352,0.689083,1746,1746.0,,,,,,,
2026-06-17T10:10:09.353,0.690041,2539,2539.0,,,,,,,
2026-06-17T10:10:09.354,0.691051,2588,2588.0,,,,,,,
2026-06-17T10:10:09.355,0.692078,2893,2893.0,,,,,,,
2026-06-17T10:10:09.356,0.693151,3018,3018.0,,,,,,,
2026-06-17T10:10:09.357,0.694081,3107,3107.0,,,,,,,
2026-06-17T10:10:09.358,0.695091,2700,2700.0,,,,,,,
2026-06-17T10:10:09.359,0.696107,2629,2629.0,,,,,,,
2026-06-17T10:10:09.360,0.697146,2244,2244.0,,,,,,,
2026-06-17T10:10:09.361,0.698124,3060,3060.0,,,,,,,
2026-06-17T10:10:09.362,0.699125,2942,2942.0,,,,,,,
2026-06-17T10:10:09.363,0.700079,2110,2110.0,,,,,,,
2026-06-17T10:10:09.364,0.701163,1215,1215.0,,,,,,,
2026-06-17T10:10:09.365,0.702037,905,905.0,,,,,,,
2026-06-17T10:10:09.366,0.703109,180,180.0,,,,,,,
2026-06-17T10:10:09.367,0.704103,1,1.0,,,,,,,
2026-06-17T10:10:09.368,0.705077,829,829.0,,,,,,,
2026-06-17T10:10:09.369,0.706051,2234,2234.0,,,,,,,
2026-06-17T10:10:09.370,0.707098,3682,3682.0,,,,,,,
2026-06-17T10:10:09.371,0.708079,3681,3681.0,,,,,,,
2026-06-17T10:10:09.372,0.709117,3679,3679.0,,,,,,,
2026-06-17T10:10:09.373,0.710115,3679,3679.0,,,,,,,
2026-06-17T10:10:09.374,0.711104,3681,3681.0,,,,,,,
2026-06-17T10:10:09.375,0.712023,3503,3503.0,,,,,,,
2026-06-17T10:10:09.376,0.713024,3484,3484.0,,,,,,,
2026-06-17T10:10:09.377,0.714078,3462,3462.0,,,,,,,
2026-06-17T10:10:09.378,0.715092,3679,3679.0,,,,,,,
2026-06-17T10:10:09.379,0.716024,3678,3678.0,,,,,,,
2026-06-17T10:10:09.380,0.717100,3679,3679.0,,,,,,,
2026-06-17T10:10:09.381,0.718081,3681,3681.0,,,,,,,
2026-06-17T10:10:09.382,0.719260,3682,3682.0,,,,,,,
2026-06-17T10:10:09.383,0.720078,3682,3682.0,,,,,,,
2026-06-17T10:10:09.384,0.721059,2714,2714.0,,,,,,,
2026-06-17T10:10:09.386,0.723076,2505,2505.0,,,,,,,
2026-06-17T10:10:09.386,0.723296,3679,3679.0,,,,,,,
2026-06-17T10:10:09.387,0.724011,3679,3679.0,,,,,,,
2026-06-17T10:10:09.388,0.725047,3679,3679.0,,,,,,,
2026-06-17T10:10:09.389,0.726071,3682,3682.0,,,,,,,
2026-06-17T10:10:09.390,0.727098,3679,3679.0,,,,,,,
2026-06-17T10:10:09.391,0.728069,3682,3682.0,,,,,,,
2026-06-17T10:10:09.392,0.729070,3682,3682.0,,,,,,,
2026-06-17T10:10:09.393,0.730050,3682,3682.0,,,,,,,
2026-06-17T10:10:09.394,0.731025,3681,3681.0,,,,,,,
2026-06-17T10:10:09.395,0.731982,3683,3683.0,,,,,,,
2026-06-17T10:10:09.396,0.733079,3682,3682.0,,,,,,,
2026-06-17T10:10:09.397,0.734086,3682,3682.0,,,,,,,
2026-06-17T10:10:09.398,0.735103,3597,3597.0,,,,,,,
2026-06-17T10:10:09.399,0.736095,2728,2728.0,,,,,,,
2026-06-17T10:10:09.400,0.737138,603,603.0,,,,,,,
2026-06-17T10:10:09.401,0.738094,2,2.0,,,,,,,
2026-06-17T10:10:09.402,0.739067,2,2.0,,,,,,,
2026-06-17T10:10:09.403,0.740147,2399,2399.0,,,,,,,
2026-06-17T10:10:09.404,0.741107,3682,3682.0,,,,,,,
2026-06-17T10:10:09.405,0.742147,3682,3682.0,,,,,,,
2026-06-17T10:10:09.406,0.743096,3492,3492.0,,,,,,,
2026-06-17T10:10:09.407,0.744067,3337,3337.0,,,,,,,
2026-06-17T10:10:09.408,0.745077,3208,3208.0,,,,,,,
2026-06-17T10:10:09.409,0.746203,3087,3087.0,,,,,,,
2026-06-17T10:10:09.410,0.747069,2985,2985.0,,,,,,,
2026-06-17T10:10:09.411,0.748079,2886,2886.0,,,,,,,
2026-06-17T10:10:09.412,0.749093,2796,2796.0,,,,,,,
2026-06-17T10:10:09.413,0.750126,2716,2716.0,,,,,,,
2026-06-17T10:10:09.414,0.751014,1578,1578.0,,,,,,,
2026-06-17T10:10:09.415,0.752069,4,4.0,,,,,,,
2026-06-17T10:10:09.416,0.753043,6,6.0,,,,,,,
2026-06-17T10:10:09.417,0.754064,5,5.0,,,,,,,
2026-06-17T10:10:09.418,0.755134,5,5.0,,,,,,,
2026-06-17T10:10:09.419,0.756083,4,4.0,,,,,,,
2026-06-17T10:10:09.420,0.757061,3,3.0,,,,,,,
2026-06-17T10:10:09.421,0.758109,14,14.0,,,,,,,
2026-06-17T10:10:09.422,0.759085,3679,3679.0,,,,,,,
2026-06-17T10:10:09.423,0.760016,3679,3679.0,,,,,,,
2026-06-17T10:10:09.424,0.761064,3681,3681.0,,,,,,,
2026-06-17T10:10:09.425,0.762073,3682,3682.0,,,,,,,
2026-06-17T10:10:09.426,0.763055,3679,3679.0,,,,,,,
2026-06-17T10:10:09.427,0.764038,3681,3681.0,,,,,,,
2026-06-17T10:10:09.428,0.765084,3683,3683.0,,,,,,,
2026-06-17T10:10:09.429,0.766106,3679,3679.0,,,,,,,
2026-06-17T10:10:09.430,0.767177,3679,3679.0,,,,,,,
2026-06-17T10:10:09.431,0.768090,3682,3682.0,,,,,,,
2026-06-17T10:10:09.432,0.768993,3,3.0,,,,,,,
2026-06-17T10:10:09.433,0.769965,4,4.0,,,,,,,
2026-06-17T10:10:09.434,0.771041,5,5.0,,,,,,,
2026-06-17T10:10:09.435,0.772065,6,6.0,,,,,,,
2026-06-17T10:10:09.436,0.773248,4,4.0,,,,,,,
2026-06-17T10:10:09.437,0.773990,2,2.0,,,,,,,
2026-06-17T10:10:09.438,0.775108,2639,2639.0,,,,,,,
2026-06-17T10:10:09.439,0.776069,3679,3679.0,,,,,,,
2026-06-17T10:10:09.440,0.777060,3679,3679.0,,,,,,,
2026-06-17T10:10:09.441,0.778107,3679,3679.0,,,,,,,
2026-06-17T10:10:09.442,0.779247,3682,3682.0,,,,,,,
2026-06-17T10:10:09.443,0.780049,3679,3679.0,,,,,,,
2026-06-17T10:10:09.444,0.781160,3679,3679.0,,,,,,,
2026-06-17T10:10:09.445,0.782115,3681,3681.0,,,,,,,
2026-06-17T10:10:09.446,0.783091,3680,3680.0,,,,,,,
2026-06-17T10:10:09.448,0.784512,3679,3679.0,,,,,,,
2026-06-17T10:10:09.448,0.785130,3684,3684.0,,,,,,,
2026-06-17T10:10:09.448,0.785388,5,5.0,,,,,,,
2026-06-17T10:10:09.449,0.786227,4,4.0,,,,,,,
2026-06-17T10:10:09.450,0.787165,4,4.0,,,,,,,
2026-06-17T10:10:09.451,0.788275,4,4.0,,,,,,,
2026-06-17T10:10:09.452,0.789323,5,5.0,,,,,,,
2026-06-17T10:10:09.453,0.790286,3,3.0,,,,,,,
2026-06-17T10:10:09.455,0.792181,1542,1542.0,,,,,,,
2026-06-17T10:10:09.456,0.793325,3679,3679.0,,,,,,,
2026-06-17T10:10:09.457,0.794270,3678,3678.0,,,,,,,
2026-06-17T10:10:09.458,0.795299,3679,3679.0,,,,,,,
2026-06-17T10:10:09.459,0.796247,3681,3681.0,,,,,,,
2026-06-17T10:10:09.460,0.797334,3679,3679.0,,,,,,,
2026-06-17T10:10:09.461,0.798268,3679,3679.0,,,,,,,
2026-06-17T10:10:09.462,0.799150,3679,3679.0,,,,,,,
2026-06-17T10:10:09.463,0.800210,3682,3682.0,,,,,,,
2026-06-17T10:10:09.464,0.801074,3679,3679.0,,,,,,,
2026-06-17T10:10:09.465,0.801963,3683,3683.0,,,,,,,
2026-06-17T10:10:09.465,0.802115,2,2.0,,,,,,,
2026-06-17T10:10:09.466,0.803068,6,6.0,,,,,,,
2026-06-17T10:10:09.467,0.804228,4,4.0,,,,,,,
2026-06-17T10:10:09.468,0.805302,3,3.0,,,,,,,
2026-06-17T10:10:09.469,0.806075,4,4.0,,,,,,,
2026-06-17T10:10:09.470,0.807194,3,3.0,,,,,,,
2026-06-17T10:10:09.472,0.809246,3450,3450.0,,,,,,,
2026-06-17T10:10:09.473,0.810315,3681,3681.0,,,,,,,
2026-06-17T10:10:09.474,0.811267,3679,3679.0,,,,,,,
2026-06-17T10:10:09.475,0.811964,3679,3679.0,,,,,,,
2026-06-17T10:10:09.476,0.813074,3678,3678.0,,,,,,,
2026-06-17T10:10:09.477,0.814032,3679,3679.0,,,,,,,
2026-06-17T10:10:09.478,0.815054,3679,3679.0,,,,,,,
2026-06-17T10:10:09.479,0.815990,3679,3679.0,,,,,,,
2026-06-17T10:10:09.480,0.817050,3682,3682.0,,,,,,,
2026-06-17T10:10:09.481,0.818038,3678,3678.0,,,,,,,
2026-06-17T10:10:09.482,0.819043,2083,2083.0,,,,,,,
2026-06-17T10:10:09.482,0.819199,5,5.0,,,,,,,
2026-06-17T10:10:09.483,0.820073,7,7.0,,,,,,,
2026-06-17T10:10:09.484,0.821041,3,3.0,,,,,,,
2026-06-17T10:10:09.485,0.822070,4,4.0,,,,,,,
2026-06-17T10:10:09.486,0.823109,4,4.0,,,,,,,
2026-06-17T10:10:09.487,0.824110,1,1.0,,,,,,,
2026-06-17T10:10:09.489,0.826133,3681,3681.0,,,,,,,
2026-06-17T10:10:09.490,0.827012,3678,3678.0,,,,,,,
2026-06-17T10:10:09.491,0.828033,3679,3679.0,,,,,,,
2026-06-17T10:10:09.492,0.829099,3679,3679.0,,,,,,,
2026-06-17T10:10:09.493,0.830040,3678,3678.0,,,,,,,
2026-06-17T10:10:09.493,0.830217,3681,3681.0,,,,,,,
2026-06-17T10:10:09.494,0.831147,3679,3679.0,,,,,,,
2026-06-17T10:10:09.495,0.832094,3680,3680.0,,,,,,,
2026-06-17T10:10:09.496,0.833116,3679,3679.0,,,,,,,
2026-06-17T10:10:09.497,0.834037,3683,3683.0,,,,,,,
2026-06-17T10:10:09.498,0.835217,4,4.0,,,,,,,
2026-06-17T10:10:09.499,0.836083,4,4.0,,,,,,,
2026-06-17T10:10:09.500,0.836983,5,5.0,,,,,,,
2026-06-17T10:10:09.501,0.838051,4,4.0,,,,,,,
2026-06-17T10:10:09.502,0.839096,5,5.0,,,,,,,
2026-06-17T10:10:09.503,0.840036,4,4.0,,,,,,,
2026-06-17T10:10:09.504,0.841043,0,0.0,,,,,,,
2026-06-17T10:10:09.505,0.842043,3682,3682.0,,,,,,,
2026-06-17T10:10:09.506,0.843103,3678,3678.0,,,,,,,
2026-06-17T10:10:09.507,0.844069,3679,3679.0,,,,,,,
2026-06-17T10:10:09.508,0.845151,3678,3678.0,,,,,,,
2026-06-17T10:10:09.509,0.846132,3679,3679.0,,,,,,,
2026-06-17T10:10:09.510,0.847112,3679,3679.0,,,,,,,
2026-06-17T10:10:09.511,0.848140,3679,3679.0,,,,,,,
2026-06-17T10:10:09.512,0.849137,3679,3679.0,,,,,,,
2026-06-17T10:10:09.513,0.850104,3682,3682.0,,,,,,,
2026-06-17T10:10:09.514,0.851107,3684,3684.0,,,,,,,
2026-06-17T10:10:09.515,0.852066,4,4.0,,,,,,,
2026-06-17T10:10:09.516,0.853249,4,4.0,,,,,,,
2026-06-17T10:10:09.517,0.854090,4,4.0,,,,,,,
2026-06-17T10:10:09.518,0.855097,4,4.0,,,,,,,
2026-06-17T10:10:09.519,0.856331,4,4.0,,,,,,,
2026-06-17T10:10:09.520,0.857350,3,3.0,,,,,,,
2026-06-17T10:10:09.521,0.858333,1099,1099.0,,,,,,,
2026-06-17T10:10:09.522,0.859218,3678,3678.0,,,,,,,
2026-06-17T10:10:09.523,0.860206,3679,3679.0,,,,,,,
2026-06-17T10:10:09.524,0.861111,3679,3679.0,,,,,,,
2026-06-17T10:10:09.525,0.862271,3678,3678.0,,,,,,,
2026-06-17T10:10:09.526,0.863310,3679,3679.0,,,,,,,
2026-06-17T10:10:09.527,0.864141,3679,3679.0,,,,,,,
2026-06-17T10:10:09.528,0.865113,3678,3678.0,,,,,,,
2026-06-17T10:10:09.529,0.865999,3679,3679.0,,,,,,,
2026-06-17T10:10:09.530,0.867028,3679,3679.0,,,,,,,
2026-06-17T10:10:09.531,0.868082,3684,3684.0,,,,,,,
2026-06-17T10:10:09.532,0.869117,3,3.0,,,,,,,
2026-06-17T10:10:09.533,0.870032,4,4.0,,,,,,,
2026-06-17T10:10:09.534,0.871033,5,5.0,,,,,,,
2026-06-17T10:10:09.536,0.873407,4,4.0,,,,,,,
2026-06-17T10:10:09.537,0.873522,5,5.0,,,,,,,
2026-06-17T10:10:09.537,0.873964,4,4.0,,,,,,,
2026-06-17T10:10:09.538,0.874932,1,1.0,,,,,,,
2026-06-17T10:10:09.539,0.875985,3676,3676.0,,,,,,,
2026-06-17T10:10:09.540,0.877069,3679,3679.0,,,,,,,
2026-06-17T10:10:09.541,0.878121,3679,3679.0,,,,,,,
2026-06-17T10:10:09.542,0.878995,3679,3679.0,,,,,,,
2026-06-17T10:10:09.543,0.880079,3678,3678.0,,,,,,,
2026-06-17T10:10:09.544,0.881080,3679,3679.0,,,,,,,
2026-06-17T10:10:09.545,0.881993,3679,3679.0,,,,,,,
2026-06-17T10:10:09.546,0.883055,3679,3679.0,,,,,,,
2026-06-17T10:10:09.547,0.884087,2017,2017.0,,,,,,,
2026-06-17T10:10:09.548,0.885040,0,0.0,,,,,,,
2026-06-17T10:10:09.549,0.886063,4,4.0,,,,,,,
2026-06-17T10:10:09.550,0.887060,4,4.0,,,,,,,
2026-06-17T10:10:09.551,0.888055,3,3.0,,,,,,,
2026-06-17T10:10:09.552,0.889068,4,4.0,,,,,,,
2026-06-17T10:10:09.553,0.890040,3,3.0,,,,,,,
2026-06-17T10:10:09.554,0.891038,1,1.0,,,,,,,
2026-06-17T10:10:09.555,0.892045,3679,3679.0,,,,,,,
2026-06-17T10:10:09.556,0.893078,3679,3679.0,,,,,,,
2026-06-17T10:10:09.557,0.894075,3678,3678.0,,,,,,,
2026-06-17T10:10:09.558,0.895087,3679,3679.0,,,,,,,
2026-06-17T10:10:09.559,0.896100,3679,3679.0,,,,,,,
2026-06-17T10:10:09.560,0.897076,3679,3679.0,,,,,,,
2026-06-17T10:10:09.561,0.898070,3678,3678.0,,,,,,,
2026-06-17T10:10:09.562,0.899092,3679,3679.0,,,,,,,
2026-06-17T10:10:09.563,0.900104,3679,3679.0,,,,,,,
2026-06-17T10:10:09.564,0.901096,3684,3684.0,,,,,,,
2026-06-17T10:10:09.565,0.902058,5,5.0,,,,,,,
2026-06-17T10:10:09.566,0.903068,5,5.0,,,,,,,
2026-06-17T10:10:09.567,0.904065,3,3.0,,,,,,,
2026-06-17T10:10:09.568,0.905070,5,5.0,,,,,,,
2026-06-17T10:10:09.569,0.906006,3,3.0,,,,,,,
2026-06-17T10:10:09.570,0.907050,5,5.0,,,,,,,
2026-06-17T10:10:09.571,0.907957,0,0.0,,,,,,,
2026-06-17T10:10:09.572,0.909015,3679,3679.0,,,,,,,
2026-06-17T10:10:09.573,0.910114,3679,3679.0,,,,,,,
2026-06-17T10:10:09.574,0.911085,3679,3679.0,,,,,,,
2026-06-17T10:10:09.575,0.912075,3678,3678.0,,,,,,,
2026-06-17T10:10:09.576,0.913056,3679,3679.0,,,,,,,
2026-06-17T10:10:09.577,0.914071,3679,3679.0,,,,,,,
2026-06-17T10:10:09.578,0.915079,3679,3679.0,,,,,,,
2026-06-17T10:10:09.579,0.916107,3678,3678.0,,,,,,,
2026-06-17T10:10:09.580,0.917131,3679,3679.0,,,,,,,
2026-06-17T10:10:09.581,0.918130,3486,3486.0,,,,,,,
2026-06-17T10:10:09.582,0.919091,3,3.0,,,,,,,
2026-06-17T10:10:09.583,0.920090,5,5.0,,,,,,,
2026-06-17T10:10:09.584,0.921087,5,5.0,,,,,,,
2026-06-17T10:10:09.585,0.922073,5,5.0,,,,,,,
2026-06-17T10:10:09.586,0.923139,3,3.0,,,,,,,
2026-06-17T10:10:09.587,0.924037,3,3.0,,,,,,,
2026-06-17T10:10:09.588,0.925089,1833,1833.0,,,,,,,
2026-06-17T10:10:09.589,0.926079,3678,3678.0,,,,,,,
2026-06-17T10:10:09.590,0.927119,3679,3679.0,,,,,,,
2026-06-17T10:10:09.592,0.929048,3679,3679.0,,,,,,,
2026-06-17T10:10:09.592,0.929203,3679,3679.0,,,,,,,
2026-06-17T10:10:09.593,0.930271,3679,3679.0,,,,,,,
2026-06-17T10:10:09.594,0.931325,3679,3679.0,,,,,,,
2026-06-17T10:10:09.595,0.932242,3682,3682.0,,,,,,,
2026-06-17T10:10:09.596,0.933369,3678,3678.0,,,,,,,
2026-06-17T10:10:09.597,0.934075,3679,3679.0,,,,,,,
2026-06-17T10:10:09.598,0.935067,395,395.0,,,,,,,
2026-06-17T10:10:09.599,0.936118,4,4.0,,,,,,,
2026-06-17T10:10:09.600,0.937273,5,5.0,,,,,,,
2026-06-17T10:10:09.601,0.938291,4,4.0,,,,,,,
2026-06-17T10:10:09.602,0.939156,4,4.0,,,,,,,
2026-06-17T10:10:09.603,0.940161,4,4.0,,,,,,,
2026-06-17T10:10:09.604,0.941378,1,1.0,,,,,,,
2026-06-17T10:10:09.605,0.942194,3679,3679.0,,,,,,,
2026-06-17T10:10:09.606,0.943321,3679,3679.0,,,,,,,
2026-06-17T10:10:09.607,0.944302,3678,3678.0,,,,,,,
2026-06-17T10:10:09.608,0.945125,3679,3679.0,,,,,,,
2026-06-17T10:10:09.609,0.946346,3679,3679.0,,,,,,,
2026-06-17T10:10:09.610,0.947116,3678,3678.0,,,,,,,
2026-06-17T10:10:09.611,0.948073,3679,3679.0,,,,,,,
2026-06-17T10:10:09.612,0.949180,3679,3679.0,,,,,,,
2026-06-17T10:10:09.613,0.950130,3682,3682.0,,,,,,,
2026-06-17T10:10:09.614,0.951111,3679,3679.0,,,,,,,
2026-06-17T10:10:09.616,0.952545,1583,1583.0,,,,,,,
2026-06-17T10:10:09.616,0.953085,3,3.0,,,,,,,
2026-06-17T10:10:09.618,0.954498,3,3.0,,,,,,,
2026-06-17T10:10:09.618,0.955132,5,5.0,,,,,,,
2026-06-17T10:10:09.619,0.956205,4,4.0,,,,,,,
2026-06-17T10:10:09.620,0.957317,5,5.0,,,,,,,
2026-06-17T10:10:09.621,0.958273,0,0.0,,,,,,,
2026-06-17T10:10:09.622,0.959345,3679,3679.0,,,,,,,
2026-06-17T10:10:09.623,0.960114,3679,3679.0,,,,,,,
2026-06-17T10:10:09.624,0.961142,3681,3681.0,,,,,,,
2026-06-17T10:10:09.625,0.962134,3679,3679.0,,,,,,,
2026-06-17T10:10:09.626,0.963091,3679,3679.0,,,,,,,
2026-06-17T10:10:09.627,0.964070,3681,3681.0,,,,,,,
2026-06-17T10:10:09.628,0.965113,3678,3678.0,,,,,,,
2026-06-17T10:10:09.629,0.966084,3679,3679.0,,,,,,,
2026-06-17T10:10:09.630,0.967109,3679,3679.0,,,,,,,
2026-06-17T10:10:09.631,0.968244,3679,3679.0,,,,,,,
2026-06-17T10:10:09.632,0.969312,4,4.0,,,,,,,
2026-06-17T10:10:09.633,0.970091,4,4.0,,,,,,,
2026-06-17T10:10:09.635,0.971534,5,5.0,,,,,,,
2026-06-17T10:10:09.635,0.972104,4,4.0,,,,,,,
2026-06-17T10:10:09.636,0.973303,3,3.0,,,,,,,
2026-06-17T10:10:09.637,0.974280,3,3.0,,,,,,,
2026-06-17T10:10:09.638,0.975341,1139,1139.0,,,,,,,
2026-06-17T10:10:09.639,0.976216,3678,3678.0,,,,,,,
2026-06-17T10:10:09.640,0.977127,3678,3678.0,,,,,,,
2026-06-17T10:10:09.641,0.978152,3679,3679.0,,,,,,,
2026-06-17T10:10:09.642,0.979104,3679,3679.0,,,,,,,
2026-06-17T10:10:09.643,0.980392,3679,3679.0,,,,,,,
2026-06-17T10:10:09.644,0.981136,3679,3679.0,,,,,,,
2026-06-17T10:10:09.645,0.982072,3681,3681.0,,,,,,,
2026-06-17T10:10:09.646,0.983154,3679,3679.0,,,,,,,
2026-06-17T10:10:09.647,0.984066,3679,3679.0,,,,,,,
2026-06-17T10:10:09.648,0.985113,3683,3683.0,,,,,,,
2026-06-17T10:10:09.649,0.986053,4,4.0,,,,,,,
2026-06-17T10:10:09.650,0.987056,4,4.0,,,,,,,
2026-06-17T10:10:09.651,0.988062,4,4.0,,,,,,,
2026-06-17T10:10:09.652,0.989076,5,5.0,,,,,,,
2026-06-17T10:10:09.653,0.990062,3,3.0,,,,,,,
2026-06-17T10:10:09.654,0.991067,3,3.0,,,,,,,
2026-06-17T10:10:09.655,0.992100,2508,2508.0,,,,,,,
2026-06-17T10:10:09.656,0.993086,3678,3678.0,,,,,,,
2026-06-17T10:10:09.657,0.994101,3677,3677.0,,,,,,,
2026-06-17T10:10:09.658,0.995128,3679,3679.0,,,,,,,
2026-06-17T10:10:09.659,0.996069,3679,3679.0,,,,,,,
2026-06-17T10:10:09.660,0.997083,3679,3679.0,,,,,,,
2026-06-17T10:10:09.661,0.998060,3679,3679.0,,,,,,,
2026-06-17T10:10:09.662,0.999134,3680,3680.0,,,,,,,
2026-06-17T10:10:09.663,1.000077,3679,3679.0,,,,,,,
2026-06-17T10:10:09.664,1.001091,3679,3679.0,,,,,,,
2026-06-17T10:10:09.665,1.002095,3682,3682.0,,,,,,,
2026-06-17T10:10:09.666,1.003072,5,5.0,,,,,,,
2026-06-17T10:10:09.667,1.004003,5,5.0,,,,,,,
2026-06-17T10:10:09.668,1.005057,6,6.0,,,,,,,
2026-06-17T10:10:09.669,1.006069,4,4.0,,,,,,,
2026-06-17T10:10:09.670,1.007095,4,4.0,,,,,,,
2026-06-17T10:10:09.671,1.008084,1,1.0,,,,,,,
2026-06-17T10:10:09.672,1.009102,3509,3509.0,,,,,,,
2026-06-17T10:10:09.673,1.010069,3679,3679.0,,,,,,,
2026-06-17T10:10:09.674,1.011105,3677,3677.0,,,,,,,
2026-06-17T10:10:09.675,1.012121,3679,3679.0,,,,,,,
2026-06-17T10:10:09.676,1.013056,3679,3679.0,,,,,,,
2026-06-17T10:10:09.677,1.014067,3679,3679.0,,,,,,,
2026-06-17T10:10:09.678,1.015032,3679,3679.0,,,,,,,
2026-06-17T10:10:09.679,1.016033,3681,3681.0,,,,,,,
2026-06-17T10:10:09.680,1.017041,3682,3682.0,,,,,,,
2026-06-17T10:10:09.681,1.018102,3679,3679.0,,,,,,,
2026-06-17T10:10:09.682,1.019073,3373,3373.0,,,,,,,
2026-06-17T10:10:09.683,1.020051,5,5.0,,,,,,,
2026-06-17T10:10:09.684,1.021034,4,4.0,,,,,,,
2026-06-17T10:10:09.685,1.022140,5,5.0,,,,,,,
2026-06-17T10:10:09.686,1.023071,4,4.0,,,,,,,
2026-06-17T10:10:09.687,1.024027,4,4.0,,,,,,,
2026-06-17T10:10:09.688,1.025087,2,2.0,,,,,,,
2026-06-17T10:10:09.689,1.026054,3679,3679.0,,,,,,,
2026-06-17T10:10:09.690,1.027127,3679,3679.0,,,,,,,
2026-06-17T10:10:09.691,1.028114,3679,3679.0,,,,,,,
2026-06-17T10:10:09.692,1.029165,3679,3679.0,,,,,,,
2026-06-17T10:10:09.693,1.030130,3679,3679.0,,,,,,,
2026-06-17T10:10:09.694,1.031212,3679,3679.0,,,,,,,
2026-06-17T10:10:09.695,1.032096,3679,3679.0,,,,,,,
2026-06-17T10:10:09.696,1.033123,3679,3679.0,,,,,,,
2026-06-17T10:10:09.697,1.034133,3681,3681.0,,,,,,,
2026-06-17T10:10:09.698,1.035155,3679,3679.0,,,,,,,
2026-06-17T10:10:09.699,1.035973,16,16.0,,,,,,,
2026-06-17T10:10:09.700,1.036995,5,5.0,,,,,,,
2026-06-17T10:10:09.701,1.038052,4,4.0,,,,,,,
2026-06-17T10:10:09.702,1.039060,4,4.0,,,,,,,
2026-06-17T10:10:09.703,1.040109,4,4.0,,,,,,,
2026-06-17T10:10:09.704,1.041032,7,7.0,,,,,,,
2026-06-17T10:10:09.705,1.042165,1133,1133.0,,,,,,,
2026-06-17T10:10:09.706,1.043095,3679,3679.0,,,,,,,
2026-06-17T10:10:09.707,1.044148,3679,3679.0,,,,,,,
2026-06-17T10:10:09.708,1.045109,3679,3679.0,,,,,,,
2026-06-17T10:10:09.709,1.046084,3678,3678.0,,,,,,,
2026-06-17T10:10:09.710,1.046997,3681,3681.0,,,,,,,
2026-06-17T10:10:09.711,1.048100,3679,3679.0,,,,,,,
2026-06-17T10:10:09.712,1.049093,3679,3679.0,,,,,,,
2026-06-17T10:10:09.713,1.050087,3679,3679.0,,,,,,,
2026-06-17T10:10:09.714,1.051087,3682,3682.0,,,,,,,
2026-06-17T10:10:09.715,1.052101,3681,3681.0,,,,,,,
2026-06-17T10:10:09.716,1.053145,3,3.0,,,,,,,
2026-06-17T10:10:09.717,1.054104,4,4.0,,,,,,,
2026-06-17T10:10:09.718,1.055084,5,5.0,,,,,,,
2026-06-17T10:10:09.719,1.056099,5,5.0,,,,,,,
2026-06-17T10:10:09.720,1.057078,5,5.0,,,,,,,
2026-06-17T10:10:09.721,1.058102,2,2.0,,,,,,,
2026-06-17T10:10:09.722,1.059123,3679,3679.0,,,,,,,
2026-06-17T10:10:09.723,1.060106,3678,3678.0,,,,,,,
2026-06-17T10:10:09.724,1.061314,3678,3678.0,,,,,,,
2026-06-17T10:10:09.726,1.062443,3679,3679.0,,,,,,,
2026-06-17T10:10:09.726,1.063209,3678,3678.0,,,,,,,
2026-06-17T10:10:09.727,1.064215,3679,3679.0,,,,,,,
2026-06-17T10:10:09.728,1.065157,3679,3679.0,,,,,,,
2026-06-17T10:10:09.729,1.066108,3678,3678.0,,,,,,,
2026-06-17T10:10:09.730,1.067289,3679,3679.0,,,,,,,
2026-06-17T10:10:09.731,1.068016,3679,3679.0,,,,,,,
2026-06-17T10:10:09.732,1.069280,3684,3684.0,,,,,,,
2026-06-17T10:10:09.733,1.070246,6,6.0,,,,,,,
2026-06-17T10:10:09.734,1.071065,4,4.0,,,,,,,
2026-06-17T10:10:09.735,1.072012,5,5.0,,,,,,,
2026-06-17T10:10:09.735,1.072163,4,4.0,,,,,,,
2026-06-17T10:10:09.736,1.073213,4,4.0,,,,,,,
2026-06-17T10:10:09.737,1.074311,2,2.0,,,,,,,
2026-06-17T10:10:09.739,1.076162,3681,3681.0,,,,,,,
2026-06-17T10:10:09.740,1.077075,3678,3678.0,,,,,,,
2026-06-17T10:10:09.741,1.078323,3679,3679.0,,,,,,,
2026-06-17T10:10:09.742,1.079080,3680,3680.0,,,,,,,
2026-06-17T10:10:09.743,1.080105,3679,3679.0,,,,,,,
2026-06-17T10:10:09.744,1.081080,3681,3681.0,,,,,,,
2026-06-17T10:10:09.745,1.082098,3682,3682.0,,,,,,,
2026-06-17T10:10:09.746,1.083067,3678,3678.0,,,,,,,
2026-06-17T10:10:09.747,1.084059,3679,3679.0,,,,,,,
2026-06-17T10:10:09.748,1.085129,3679,3679.0,,,,,,,
2026-06-17T10:10:09.749,1.086183,3684,3684.0,,,,,,,
2026-06-17T10:10:09.749,1.086371,5,5.0,,,,,,,
2026-06-17T10:10:09.750,1.087054,5,5.0,,,,,,,
2026-06-17T10:10:09.751,1.088065,4,4.0,,,,,,,
2026-06-17T10:10:09.752,1.089136,4,4.0,,,,,,,
2026-06-17T10:10:09.753,1.090039,4,4.0,,,,,,,
2026-06-17T10:10:09.754,1.091106,0,0.0,,,,,,,
2026-06-17T10:10:09.756,1.092998,3679,3679.0,,,,,,,
2026-06-17T10:10:09.757,1.094083,3679,3679.0,,,,,,,
2026-06-17T10:10:09.758,1.095137,3679,3679.0,,,,,,,
2026-06-17T10:10:09.759,1.096159,3679,3679.0,,,,,,,
2026-06-17T10:10:09.760,1.097045,3679,3679.0,,,,,,,
2026-06-17T10:10:09.761,1.098087,3680,3680.0,,,,,,,
2026-06-17T10:10:09.762,1.099092,3681,3681.0,,,,,,,
2026-06-17T10:10:09.763,1.100047,3679,3679.0,,,,,,,
2026-06-17T10:10:09.764,1.101071,3679,3679.0,,,,,,,
2026-06-17T10:10:09.765,1.102088,2179,2179.0,,,,,,,
2026-06-17T10:10:09.765,1.102218,4,4.0,,,,,,,
2026-06-17T10:10:09.766,1.103111,4,4.0,,,,,,,
2026-06-17T10:10:09.767,1.104082,5,5.0,,,,,,,
2026-06-17T10:10:09.768,1.105223,4,4.0,,,,,,,
2026-06-17T10:10:09.769,1.106309,4,4.0,,,,,,,
2026-06-17T10:10:09.770,1.107340,4,4.0,,,,,,,
2026-06-17T10:10:09.771,1.108325,4,4.0,,,,,,,
2026-06-17T10:10:09.772,1.109230,4,4.0,,,,,,,
2026-06-17T10:10:09.773,1.110311,3,3.0,,,,,,,
2026-06-17T10:10:09.774,1.111096,4,4.0,,,,,,,
2026-06-17T10:10:09.775,1.112083,3,3.0,,,,,,,
2026-06-17T10:10:09.776,1.113192,3,3.0,,,,,,,
2026-06-17T10:10:09.777,1.114306,3,3.0,,,,,,,
2026-06-17T10:10:09.778,1.115328,3,3.0,,,,,,,
2026-06-17T10:10:09.779,1.116070,4,4.0,,,,,,,
2026-06-17T10:10:09.781,1.117594,3,3.0,,,,,,,
2026-06-17T10:10:09.781,1.118167,2,2.0,,,,,,,
2026-06-17T10:10:09.782,1.119405,3,3.0,,,,,,,
2026-06-17T10:10:09.783,1.120076,2,2.0,,,,,,,
2026-06-17T10:10:09.784,1.121134,3,3.0,,,,,,,
2026-06-17T10:10:09.785,1.122128,2,2.0,,,,,,,
2026-06-17T10:10:09.786,1.123182,2,2.0,,,,,,,
2026-06-17T10:10:09.787,1.124127,2,2.0,,,,,,,
2026-06-17T10:10:09.788,1.125266,2,2.0,,,,,,,
2026-06-17T10:10:09.789,1.126190,3,3.0,,,,,,,
2026-06-17T10:10:09.790,1.127051,2,2.0,,,,,,,
2026-06-17T10:10:09.791,1.128001,3,3.0,,,,,,,
2026-06-17T10:10:09.792,1.129174,2,2.0,,,,,,,
2026-06-17T10:10:09.793,1.130365,2,2.0,,,,,,,
2026-06-17T10:10:09.794,1.131338,1,1.0,,,,,,,
2026-06-17T10:10:09.795,1.132181,1,1.0,,,,,,,
2026-06-17T10:10:09.796,1.133319,1,1.0,,,,,,,
2026-06-17T10:10:09.797,1.134267,1,1.0,,,,,,,
2026-06-17T10:10:09.798,1.135228,1,1.0,,,,,,,
2026-06-17T10:10:09.799,1.136213,1,1.0,,,,,,,
2026-06-17T10:10:09.800,1.137325,1,1.0,,,,,,,
2026-06-17T10:10:09.801,1.138308,1,1.0,,,,,,,
2026-06-17T10:10:09.802,1.139336,0,0.0,,,,,,,
2026-06-17T10:10:09.803,1.140319,0,0.0,,,,,,,
2026-06-17T10:10:09.804,1.141326,1,1.0,,,,,,,
2026-06-17T10:10:09.805,1.142336,124,124.0,,,,,,,
2026-06-17T10:10:09.806,1.143337,439,439.0,,,,,,,
2026-06-17T10:10:09.807,1.144066,769,769.0,,,,,,,
2026-06-17T10:10:09.808,1.145126,459,459.0,,,,,,,
2026-06-17T10:10:09.809,1.146093,559,559.0,,,,,,,
2026-06-17T10:10:09.810,1.147100,656,656.0,,,,,,,
2026-06-17T10:10:09.811,1.148071,3262,3262.0,,,,,,,
2026-06-17T10:10:09.813,1.150083,3681,3681.0,,,,,,,
2026-06-17T10:10:09.813,1.150252,3351,3351.0,,,,,,,
2026-06-17T10:10:09.814,1.151269,386,386.0,,,,,,,
2026-06-17T10:10:09.815,1.152200,447,447.0,,,,,,,
2026-06-17T10:10:09.816,1.153280,567,567.0,,,,,,,
2026-06-17T10:10:09.817,1.154326,674,674.0,,,,,,,
2026-06-17T10:10:09.818,1.155336,769,769.0,,,,,,,
2026-06-17T10:10:09.819,1.156081,854,854.0,,,,,,,
2026-06-17T10:10:09.820,1.157099,927,927.0,,,,,,,
2026-06-17T10:10:09.821,1.158097,3107,3107.0,,,,,,,
2026-06-17T10:10:09.822,1.159091,3679,3679.0,,,,,,,
2026-06-17T10:10:09.823,1.160156,3681,3681.0,,,,,,,
2026-06-17T10:10:09.824,1.161123,3678,3678.0,,,,,,,
2026-06-17T10:10:09.825,1.162138,3679,3679.0,,,,,,,
2026-06-17T10:10:09.826,1.163181,3681,3681.0,,,,,,,
2026-06-17T10:10:09.827,1.164035,3681,3681.0,,,,,,,
2026-06-17T10:10:09.828,1.165106,3677,3677.0,,,,,,,
2026-06-17T10:10:09.829,1.166110,3679,3679.0,,,,,,,
2026-06-17T10:10:09.830,1.167101,3682,3682.0,,,,,,,
2026-06-17T10:10:09.831,1.168089,1803,1803.0,,,,,,,
2026-06-17T10:10:09.832,1.169137,2,2.0,,,,,,,
2026-06-17T10:10:09.833,1.170117,2,2.0,,,,,,,
2026-06-17T10:10:09.834,1.171066,0,0.0,,,,,,,
2026-06-17T10:10:09.835,1.172029,1,1.0,,,,,,,
2026-06-17T10:10:09.836,1.173052,1,1.0,,,,,,,
2026-06-17T10:10:09.837,1.174230,1606,1606.0,,,,,,,
2026-06-17T10:10:09.838,1.175208,3680,3680.0,,,,,,,
2026-06-17T10:10:09.839,1.176103,3679,3679.0,,,,,,,
2026-06-17T10:10:09.840,1.177163,3679,3679.0,,,,,,,
2026-06-17T10:10:09.841,1.178084,3682,3682.0,,,,,,,
2026-06-17T10:10:09.842,1.179062,3679,3679.0,,,,,,,
2026-06-17T10:10:09.843,1.180065,3682,3682.0,,,,,,,
2026-06-17T10:10:09.844,1.181137,3682,3682.0,,,,,,,
2026-06-17T10:10:09.845,1.182112,3681,3681.0,,,,,,,
2026-06-17T10:10:09.846,1.183093,3341,3341.0,,,,,,,
2026-06-17T10:10:09.847,1.184133,901,901.0,,,,,,,
2026-06-17T10:10:09.848,1.185113,1,1.0,,,,,,,
2026-06-17T10:10:09.849,1.186058,1,1.0,,,,,,,
2026-06-17T10:10:09.850,1.187138,1,1.0,,,,,,,
2026-06-17T10:10:09.851,1.188031,1,1.0,,,,,,,
2026-06-17T10:10:09.852,1.188978,2,2.0,,,,,,,
2026-06-17T10:10:09.872,1.208593,2,2.0,,,,,,,
2026-06-17T10:10:09.872,1.209040,0,0.0,,,,,,,
2026-06-17T10:10:09.872,1.209364,1,1.0,,,,,,,
2026-06-17T10:10:09.873,1.209772,0,0.0,,,,,,,
2026-06-17T10:10:09.892,1.229019,0,0.0,,,,,,,
2026-06-17T10:10:09.893,1.229733,1,1.0,,,,,,,
2026-06-17T10:10:09.917,1.253854,88,88.0,,,,,,,
2026-06-17T10:10:09.917,1.254311,242,242.0,,,,,,,
2026-06-17T10:10:09.918,1.254479,374,374.0,,,,,,,
2026-06-17T10:10:09.918,1.254595,495,495.0,,,,,,,
2026-06-17T10:10:09.918,1.254696,607,607.0,,,,,,,
2026-06-17T10:10:09.918,1.254805,709,709.0,,,,,,,
2026-06-17T10:10:09.918,1.255110,800,800.0,,,,,,,
2026-06-17T10:10:09.919,1.255504,882,882.0,,,,,,,
2026-06-17T10:10:09.919,1.255632,958,958.0,,,,,,,
2026-06-17T10:10:09.919,1.255746,1027,1027.0,,,,,,,
2026-06-17T10:10:09.938,1.274716,1089,1089.0,,,,,,,
2026-06-17T10:10:09.938,1.275020,1146,1146.0,,,,,,,
2026-06-17T10:10:09.938,1.275248,1199,1199.0,,,,,,,
2026-06-17T10:10:09.938,1.275388,1247,1247.0,,,,,,,
2026-06-17T10:10:09.939,1.275556,1289,1289.0,,,,,,,
2026-06-17T10:10:09.939,1.275742,1331,1331.0,,,,,,,
2026-06-17T10:10:09.939,1.275896,1369,1369.0,,,,,,,
2026-06-17T10:10:09.939,1.276011,1403,1403.0,,,,,,,
2026-06-17T10:10:09.939,1.276114,1436,1436.0,,,,,,,
2026-06-17T10:10:09.939,1.276215,1464,1464.0,,,,,,,
2026-06-17T10:10:09.939,1.276313,1492,1492.0,,,,,,,
2026-06-17T10:10:09.939,1.276413,1516,1516.0,,,,,,,
2026-06-17T10:10:09.940,1.276510,1540,1540.0,,,,,,,
2026-06-17T10:10:09.940,1.276607,1561,1561.0,,,,,,,
2026-06-17T10:10:09.940,1.276704,1583,1583.0,,,,,,,
2026-06-17T10:10:09.940,1.276810,1599,1599.0,,,,,,,
2026-06-17T10:10:09.940,1.277010,1615,1615.0,,,,,,,
2026-06-17T10:10:09.940,1.277251,1631,1631.0,,,,,,,
2026-06-17T10:10:09.940,1.277390,1646,1646.0,,,,,,,
2026-06-17T10:10:09.941,1.277505,1659,1659.0,,,,,,,
2026-06-17T10:10:09.941,1.277645,1671,1671.0,,,,,,,
2026-06-17T10:10:09.941,1.277774,1683,1683.0,,,,,,,
2026-06-17T10:10:09.941,1.277889,1694,1694.0,,,,,,,
2026-06-17T10:10:09.941,1.278091,1702,1702.0,,,,,,,
2026-06-17T10:10:09.941,1.278258,1711,1711.0,,,,,,,
2026-06-17T10:10:09.941,1.278384,1722,1722.0,,,,,,,
2026-06-17T10:10:09.942,1.278490,1726,1726.0,,,,,,,
2026-06-17T10:10:09.942,1.278596,1735,1735.0,,,,,,,
2026-06-17T10:10:09.942,1.278729,1739,1739.0,,,,,,,
2026-06-17T10:10:09.942,1.278828,1775,1775.0,,,,,,,
2026-06-17T10:10:09.942,1.279018,3679,3679.0,,,,,,,
2026-06-17T10:10:09.942,1.279190,3681,3681.0,,,,,,,
2026-06-17T10:10:09.942,1.279310,3682,3682.0,,,,,,,
2026-06-17T10:10:09.942,1.279420,3682,3682.0,,,,,,,
2026-06-17T10:10:09.943,1.279526,3682,3682.0,,,,,,,
2026-06-17T10:10:09.943,1.279630,3172,3172.0,,,,,,,
2026-06-17T10:10:09.943,1.279732,2718,2718.0,,,,,,,
2026-06-17T10:10:09.943,1.279851,2262,2262.0,,,,,,,
2026-06-17T10:10:09.943,1.279991,699,699.0,,,,,,,
2026-06-17T10:10:09.943,1.280099,677,677.0,,,,,,,
2026-06-17T10:10:09.943,1.280203,1366,1366.0,,,,,,,
2026-06-17T10:10:09.943,1.280304,2683,2683.0,,,,,,,
2026-06-17T10:10:09.943,1.280402,3151,3151.0,,,,,,,
2026-06-17T10:10:09.944,1.280500,2572,2572.0,,,,,,,
2026-06-17T10:10:09.944,1.280598,2791,2791.0,,,,,,,
2026-06-17T10:10:09.944,1.280695,3682,3682.0,,,,,,,
2026-06-17T10:10:09.944,1.280805,3677,3677.0,,,,,,,
2026-06-17T10:10:09.944,1.281021,3675,3675.0,,,,,,,
2026-06-17T10:10:09.944,1.281189,3677,3677.0,,,,,,,
2026-06-17T10:10:09.944,1.281310,3675,3675.0,,,,,,,
2026-06-17T10:10:09.944,1.281418,3676,3676.0,,,,,,,
2026-06-17T10:10:09.945,1.281521,3677,3677.0,,,,,,,
2026-06-17T10:10:09.945,1.281638,3678,3678.0,,,,,,,
2026-06-17T10:10:09.945,1.281738,3678,3678.0,,,,,,,
2026-06-17T10:10:09.945,1.281839,3676,3676.0,,,,,,,
2026-06-17T10:10:09.945,1.281956,3679,3679.0,,,,,,,
2026-06-17T10:10:09.945,1.282069,3676,3676.0,,,,,,,
2026-06-17T10:10:09.945,1.282174,3676,3676.0,,,,,,,
2026-06-17T10:10:09.945,1.282275,3677,3677.0,,,,,,,
2026-06-17T10:10:09.945,1.282373,3679,3679.0,,,,,,,
2026-06-17T10:10:09.946,1.282471,3677,3677.0,,,,,,,
2026-06-17T10:10:09.946,1.282570,3676,3676.0,,,,,,,
2026-06-17T10:10:09.946,1.282724,3678,3678.0,,,,,,,
2026-06-17T10:10:09.946,1.282830,3676,3676.0,,,,,,,
2026-06-17T10:10:09.946,1.283000,3677,3677.0,,,,,,,
2026-06-17T10:10:09.946,1.283168,3679,3679.0,,,,,,,
2026-06-17T10:10:09.946,1.283287,3678,3678.0,,,,,,,
2026-06-17T10:10:09.946,1.283396,3677,3677.0,,,,,,,
2026-06-17T10:10:09.947,1.283498,3678,3678.0,,,,,,,
2026-06-17T10:10:09.947,1.283598,3681,3681.0,,,,,,,
2026-06-17T10:10:09.947,1.283711,3678,3678.0,,,,,,,
2026-06-17T10:10:09.947,1.283830,3678,3678.0,,,,,,,
2026-06-17T10:10:09.947,1.284048,3679,3679.0,,,,,,,
2026-06-17T10:10:09.947,1.284284,3678,3678.0,,,,,,,
2026-06-17T10:10:09.948,1.284454,3679,3679.0,,,,,,,
2026-06-17T10:10:09.948,1.284683,3679,3679.0,,,,,,,
2026-06-17T10:10:09.948,1.285043,3681,3681.0,,,,,,,
2026-06-17T10:10:09.948,1.285395,3680,3680.0,,,,,,,
2026-06-17T10:10:09.949,1.285643,3681,3681.0,,,,,,,
2026-06-17T10:10:09.949,1.285789,3680,3680.0,,,,,,,
2026-06-17T10:10:09.949,1.286116,3679,3679.0,,,,,,,
2026-06-17T10:10:09.951,1.287466,3679,3679.0,,,,,,,
2026-06-17T10:10:09.951,1.288118,3679,3679.0,,,,,,,
2026-06-17T10:10:09.952,1.289349,3683,3683.0,,,,,,,
2026-06-17T10:10:09.953,1.290234,3679,3679.0,,,,,,,
2026-06-17T10:10:09.954,1.291109,3683,3683.0,,,,,,,
2026-06-17T10:10:09.955,1.292047,3681,3681.0,,,,,,,
2026-06-17T10:10:09.956,1.293129,3680,3680.0,,,,,,,
2026-06-17T10:10:09.957,1.294203,3683,3683.0,,,,,,,
2026-06-17T10:10:09.958,1.295271,2935,2935.0,,,,,,,
2026-06-17T10:10:09.959,1.296235,3394,3394.0,,,,,,,
2026-06-17T10:10:09.960,1.297217,3683,3683.0,,,,,,,
2026-06-17T10:10:09.961,1.298107,3385,3385.0,,,,,,,
2026-06-17T10:10:09.962,1.299089,1,1.0,,,,,,,
2026-06-17T10:10:09.963,1.300172,1,1.0,,,,,,,
2026-06-17T10:10:09.964,1.301255,827,827.0,,,,,,,
2026-06-17T10:10:09.965,1.302136,3682,3682.0,,,,,,,
2026-06-17T10:10:09.966,1.303126,3685,3685.0,,,,,,,
2026-06-17T10:10:09.967,1.304120,3681,3681.0,,,,,,,
2026-06-17T10:10:09.968,1.305134,3682,3682.0,,,,,,,
2026-06-17T10:10:09.969,1.306113,3640,3640.0,,,,,,,
2026-06-17T10:10:09.970,1.307115,3471,3471.0,,,,,,,
2026-06-17T10:10:09.971,1.308060,3334,3334.0,,,,,,,
2026-06-17T10:10:09.972,1.309188,3208,3208.0,,,,,,,
2026-06-17T10:10:09.973,1.310106,916,916.0,,,,,,,
2026-06-17T10:10:09.974,1.311030,2,2.0,,,,,,,
2026-06-17T10:10:09.975,1.312085,3,3.0,,,,,,,
2026-06-17T10:10:09.976,1.313075,3,3.0,,,,,,,
2026-06-17T10:10:09.977,1.314103,3,3.0,,,,,,,
2026-06-17T10:10:09.978,1.315063,3,3.0,,,,,,,
2026-06-17T10:10:09.979,1.316034,4,4.0,,,,,,,
2026-06-17T10:10:09.980,1.317050,2,2.0,,,,,,,
2026-06-17T10:10:09.981,1.318138,0,0.0,,,,,,,
2026-06-17T10:10:09.982,1.319148,3679,3679.0,,,,,,,
2026-06-17T10:10:09.983,1.320118,3682,3682.0,,,,,,,
2026-06-17T10:10:09.984,1.321105,3679,3679.0,,,,,,,
2026-06-17T10:10:09.985,1.322068,3680,3680.0,,,,,,,
2026-06-17T10:10:09.986,1.323116,3682,3682.0,,,,,,,
2026-06-17T10:10:09.987,1.324081,3682,3682.0,,,,,,,
2026-06-17T10:10:09.988,1.325135,3682,3682.0,,,,,,,
2026-06-17T10:10:09.989,1.326401,1832,1832.0,,,,,,,
2026-06-17T10:10:09.990,1.327177,2,2.0,,,,,,,
2026-06-17T10:10:09.991,1.328001,3,3.0,,,,,,,
2026-06-17T10:10:09.992,1.329087,2,2.0,,,,,,,
2026-06-17T10:10:09.993,1.330069,2,2.0,,,,,,,
2026-06-17T10:10:09.994,1.331102,3,3.0,,,,,,,
2026-06-17T10:10:09.995,1.332075,4,4.0,,,,,,,
2026-06-17T10:10:09.996,1.333087,5,5.0,,,,,,,
2026-06-17T10:10:09.997,1.334095,2,2.0,,,,,,,
2026-06-17T10:10:09.998,1.335124,1540,1540.0,,,,,,,
2026-06-17T10:10:09.999,1.336133,3682,3682.0,,,,,,,
2026-06-17T10:10:10.000,1.337119,3682,3682.0,,,,,,,
2026-06-17T10:10:10.001,1.338098,3681,3681.0,,,,,,,
2026-06-17T10:10:10.002,1.339081,3682,3682.0,,,,,,,
2026-06-17T10:10:10.004,1.340987,3682,3682.0,,,,,,,
2026-06-17T10:10:10.004,1.341146,3682,3682.0,,,,,,,
2026-06-17T10:10:10.005,1.342096,3681,3681.0,,,,,,,
2026-06-17T10:10:10.006,1.343065,3683,3683.0,,,,,,,
2026-06-17T10:10:10.007,1.344094,3,3.0,,,,,,,
2026-06-17T10:10:10.008,1.345062,4,4.0,,,,,,,
2026-06-17T10:10:10.009,1.346015,5,5.0,,,,,,,
2026-06-17T10:10:10.010,1.347061,2,2.0,,,,,,,
2026-06-17T10:10:10.012,1.348492,3,3.0,,,,,,,
2026-06-17T10:10:10.012,1.349071,3,3.0,,,,,,,
2026-06-17T10:10:10.013,1.350304,2,2.0,,,,,,,
2026-06-17T10:10:10.014,1.351314,302,302.0,,,,,,,
2026-06-17T10:10:10.015,1.352232,3679,3679.0,,,,,,,
2026-06-17T10:10:10.016,1.353307,3679,3679.0,,,,,,,
2026-06-17T10:10:10.017,1.354377,3682,3682.0,,,,,,,
2026-06-17T10:10:10.018,1.355220,3679,3679.0,,,,,,,
2026-06-17T10:10:10.019,1.356185,3679,3679.0,,,,,,,
2026-06-17T10:10:10.020,1.357283,3682,3682.0,,,,,,,
2026-06-17T10:10:10.021,1.358357,3682,3682.0,,,,,,,
2026-06-17T10:10:10.022,1.359078,3574,3574.0,,,,,,,
2026-06-17T10:10:10.023,1.360118,471,471.0,,,,,,,
2026-06-17T10:10:10.024,1.361009,2,2.0,,,,,,,
2026-06-17T10:10:10.025,1.362033,2,2.0,,,,,,,
2026-06-17T10:10:10.026,1.363030,2,2.0,,,,,,,
2026-06-17T10:10:10.027,1.364043,2,2.0,,,,,,,
2026-06-17T10:10:10.028,1.365030,1,1.0,,,,,,,
2026-06-17T10:10:10.029,1.366036,3,3.0,,,,,,,
2026-06-17T10:10:10.030,1.367068,3,3.0,,,,,,,
2026-06-17T10:10:10.031,1.368068,664,664.0,,,,,,,
2026-06-17T10:10:10.032,1.369095,3679,3679.0,,,,,,,
2026-06-17T10:10:10.033,1.370062,3679,3679.0,,,,,,,
2026-06-17T10:10:10.034,1.371047,3679,3679.0,,,,,,,
2026-06-17T10:10:10.035,1.372026,3682,3682.0,,,,,,,
2026-06-17T10:10:10.036,1.373115,3678,3678.0,,,,,,,
2026-06-17T10:10:10.037,1.374076,3681,3681.0,,,,,,,
2026-06-17T10:10:10.038,1.375085,3500,3500.0,,,,,,,
2026-06-17T10:10:10.039,1.376056,307,307.0,,,,,,,
2026-06-17T10:10:10.039,1.376175,3,3.0,,,,,,,
2026-06-17T10:10:10.040,1.377286,1,1.0,,,,,,,
2026-06-17T10:10:10.041,1.378192,1,1.0,,,,,,,
2026-06-17T10:10:10.042,1.379171,1,1.0,,,,,,,
2026-06-17T10:10:10.043,1.380075,1,1.0,,,,,,,
2026-06-17T10:10:10.044,1.381135,2,2.0,,,,,,,
2026-06-17T10:10:10.045,1.382367,4,4.0,,,,,,,
2026-06-17T10:10:10.046,1.383096,1,1.0,,,,,,,
2026-06-17T10:10:10.048,1.385053,1353,1353.0,,,,,,,
2026-06-17T10:10:10.049,1.386079,3679,3679.0,,,,,,,
2026-06-17T10:10:10.050,1.387314,3679,3679.0,,,,,,,
2026-06-17T10:10:10.051,1.388154,3679,3679.0,,,,,,,
2026-06-17T10:10:10.052,1.389329,3681,3681.0,,,,,,,
2026-06-17T10:10:10.053,1.390120,3679,3679.0,,,,,,,
2026-06-17T10:10:10.054,1.391324,3679,3679.0,,,,,,,
2026-06-17T10:10:10.055,1.392011,3680,3680.0,,,,,,,
2026-06-17T10:10:10.056,1.392996,3681,3681.0,,,,,,,
2026-06-17T10:10:10.057,1.393990,3233,3233.0,,,,,,,
2026-06-17T10:10:10.058,1.394984,1152,1152.0,,,,,,,
2026-06-17T10:10:10.059,1.395990,852,852.0,,,,,,,
2026-06-17T10:10:10.060,1.396976,1864,1864.0,,,,,,,
2026-06-17T10:10:10.061,1.398062,1442,1442.0,,,,,,,
2026-06-17T10:10:10.061,1.398227,2,2.0,,,,,,,
2026-06-17T10:10:10.062,1.399060,4,4.0,,,,,,,
2026-06-17T10:10:10.063,1.400053,1,1.0,,,,,,,
2026-06-17T10:10:10.065,1.401983,3180,3180.0,,,,,,,
2026-06-17T10:10:10.066,1.403005,3682,3682.0,,,,,,,
2026-06-17T10:10:10.067,1.403987,3679,3679.0,,,,,,,
2026-06-17T10:10:10.068,1.405010,3682,3682.0,,,,,,,
2026-06-17T10:10:10.069,1.406058,3682,3682.0,,,,,,,
2026-06-17T10:10:10.070,1.407057,3679,3679.0,,,,,,,
2026-06-17T10:10:10.071,1.408060,3681,3681.0,,,,,,,
2026-06-17T10:10:10.072,1.409042,1838,1838.0,,,,,,,
2026-06-17T10:10:10.072,1.409157,1,1.0,,,,,,,
2026-06-17T10:10:10.073,1.410039,1,1.0,,,,,,,
2026-06-17T10:10:10.074,1.411106,2,2.0,,,,,,,
2026-06-17T10:10:10.075,1.412019,2,2.0,,,,,,,
2026-06-17T10:10:10.076,1.413095,84,84.0,,,,,,,
2026-06-17T10:10:10.077,1.414101,2,2.0,,,,,,,
2026-06-17T10:10:10.078,1.415049,2,2.0,,,,,,,
2026-06-17T10:10:10.079,1.416068,1,1.0,,,,,,,
2026-06-17T10:10:10.080,1.417039,2,2.0,,,,,,,
2026-06-17T10:10:10.082,1.419060,3674,3674.0,,,,,,,
2026-06-17T10:10:10.083,1.419967,3679,3679.0,,,,,,,
2026-06-17T10:10:10.084,1.421032,3679,3679.0,,,,,,,
2026-06-17T10:10:10.085,1.422090,3679,3679.0,,,,,,,
2026-06-17T10:10:10.086,1.423043,3682,3682.0,,,,,,,
2026-06-17T10:10:10.087,1.424066,3679,3679.0,,,,,,,
2026-06-17T10:10:10.088,1.424937,3682,3682.0,,,,,,,
2026-06-17T10:10:10.088,1.425085,1052,1052.0,,,,,,,
2026-06-17T10:10:10.089,1.426077,3,3.0,,,,,,,
2026-06-17T10:10:10.090,1.427048,2,2.0,,,,,,,
2026-06-17T10:10:10.091,1.428035,1,1.0,,,,,,,
2026-06-17T10:10:10.092,1.429047,1,1.0,,,,,,,
2026-06-17T10:10:10.093,1.430035,1,1.0,,,,,,,
2026-06-17T10:10:10.094,1.431080,4,4.0,,,,,,,
2026-06-17T10:10:10.095,1.432154,4,4.0,,,,,,,
2026-06-17T10:10:10.096,1.433081,3,3.0,,,,,,,
2026-06-17T10:10:10.097,1.434127,2,2.0,,,,,,,
2026-06-17T10:10:10.098,1.435060,900,900.0,,,,,,,
2026-06-17T10:10:10.099,1.436037,3682,3682.0,,,,,,,
2026-06-17T10:10:10.100,1.437090,3679,3679.0,,,,,,,
2026-06-17T10:10:10.101,1.438019,3679,3679.0,,,,,,,
2026-06-17T10:10:10.102,1.439090,3679,3679.0,,,,,,,
2026-06-17T10:10:10.103,1.440141,3681,3681.0,,,,,,,
2026-06-17T10:10:10.104,1.441173,3682,3682.0,,,,,,,
2026-06-17T10:10:10.105,1.442067,2076,2076.0,,,,,,,
2026-06-17T10:10:10.106,1.443094,1,1.0,,,,,,,
2026-06-17T10:10:10.107,1.444087,2,2.0,,,,,,,
2026-06-17T10:10:10.108,1.445057,2,2.0,,,,,,,
2026-06-17T10:10:10.109,1.446061,105,105.0,,,,,,,
2026-06-17T10:10:10.110,1.447088,725,725.0,,,,,,,
2026-06-17T10:10:10.111,1.448096,2,2.0,,,,,,,
2026-06-17T10:10:10.112,1.449023,3,3.0,,,,,,,
2026-06-17T10:10:10.113,1.450067,1,1.0,,,,,,,
2026-06-17T10:10:10.114,1.451177,2213,2213.0,,,,,,,
2026-06-17T10:10:10.115,1.452114,3679,3679.0,,,,,,,
2026-06-17T10:10:10.116,1.453221,3681,3681.0,,,,,,,
2026-06-17T10:10:10.117,1.454350,3682,3682.0,,,,,,,
2026-06-17T10:10:10.118,1.455311,3679,3679.0,,,,,,,
2026-06-17T10:10:10.119,1.456370,3679,3679.0,,,,,,,
2026-06-17T10:10:10.120,1.457203,3682,3682.0,,,,,,,
2026-06-17T10:10:10.121,1.458331,1915,1915.0,,,,,,,
2026-06-17T10:10:10.122,1.459053,1,1.0,,,,,,,
2026-06-17T10:10:10.123,1.460067,2,2.0,,,,,,,
2026-06-17T10:10:10.124,1.461109,2,2.0,,,,,,,
2026-06-17T10:10:10.126,1.462728,1,1.0,,,,,,,
2026-06-17T10:10:10.126,1.463170,1,1.0,,,,,,,
2026-06-17T10:10:10.127,1.464372,1,1.0,,,,,,,
2026-06-17T10:10:10.128,1.465273,3,3.0,,,,,,,
2026-06-17T10:10:10.129,1.466087,2,2.0,,,,,,,
2026-06-17T10:10:10.130,1.467281,0,0.0,,,,,,,
2026-06-17T10:10:10.131,1.468243,2708,2708.0,,,,,,,
2026-06-17T10:10:10.132,1.469415,3679,3679.0,,,,,,,
2026-06-17T10:10:10.133,1.470325,3679,3679.0,,,,,,,
2026-06-17T10:10:10.134,1.471230,3679,3679.0,,,,,,,
2026-06-17T10:10:10.135,1.472213,3679,3679.0,,,,,,,
2026-06-17T10:10:10.136,1.473063,3679,3679.0,,,,,,,
2026-06-17T10:10:10.137,1.474110,3682,3682.0,,,,,,,
2026-06-17T10:10:10.138,1.475150,1972,1972.0,,,,,,,
2026-06-17T10:10:10.139,1.476058,0,0.0,,,,,,,
2026-06-17T10:10:10.140,1.477077,2,2.0,,,,,,,
2026-06-17T10:10:10.141,1.478102,2,2.0,,,,,,,
2026-06-17T10:10:10.142,1.479121,1,1.0,,,,,,,
2026-06-17T10:10:10.143,1.480131,703,703.0,,,,,,,
2026-06-17T10:10:10.144,1.481069,2,2.0,,,,,,,
2026-06-17T10:10:10.145,1.482078,3,3.0,,,,,,,
2026-06-17T10:10:10.146,1.483141,2,2.0,,,,,,,
2026-06-17T10:10:10.147,1.484097,1476,1476.0,,,,,,,
2026-06-17T10:10:10.148,1.485119,3679,3679.0,,,,,,,
2026-06-17T10:10:10.149,1.486148,3678,3678.0,,,,,,,
2026-06-17T10:10:10.150,1.487170,3679,3679.0,,,,,,,
2026-06-17T10:10:10.151,1.488252,3680,3680.0,,,,,,,
2026-06-17T10:10:10.152,1.489160,3678,3678.0,,,,,,,
2026-06-17T10:10:10.153,1.490171,3679,3679.0,,,,,,,
2026-06-17T10:10:10.154,1.491175,3683,3683.0,,,,,,,
2026-06-17T10:10:10.155,1.492126,667,667.0,,,,,,,
2026-06-17T10:10:10.156,1.493074,2,2.0,,,,,,,
2026-06-17T10:10:10.157,1.494039,2,2.0,,,,,,,
2026-06-17T10:10:10.158,1.495093,0,0.0,,,,,,,
2026-06-17T10:10:10.159,1.496119,2,2.0,,,,,,,
2026-06-17T10:10:10.160,1.497094,458,458.0,,,,,,,
2026-06-17T10:10:10.161,1.498060,2,2.0,,,,,,,
2026-06-17T10:10:10.162,1.499160,3,3.0,,,,,,,
2026-06-17T10:10:10.163,1.499989,2,2.0,,,,,,,
2026-06-17T10:10:10.164,1.501117,1930,1930.0,,,,,,,
2026-06-17T10:10:10.165,1.502087,3681,3681.0,,,,,,,
2026-06-17T10:10:10.166,1.503119,3679,3679.0,,,,,,,
2026-06-17T10:10:10.167,1.504130,3679,3679.0,,,,,,,
2026-06-17T10:10:10.168,1.505086,3681,3681.0,,,,,,,
2026-06-17T10:10:10.169,1.506176,3678,3678.0,,,,,,,
2026-06-17T10:10:10.170,1.507140,3679,3679.0,,,,,,,
2026-06-17T10:10:10.171,1.508203,2878,2878.0,,,,,,,
2026-06-17T10:10:10.172,1.509084,1,1.0,,,,,,,
2026-06-17T10:10:10.173,1.510012,1,1.0,,,,,,,
2026-06-17T10:10:10.174,1.510966,2,2.0,,,,,,,
2026-06-17T10:10:10.175,1.512059,2,2.0,,,,,,,
2026-06-17T10:10:10.176,1.513080,1,1.0,,,,,,,
2026-06-17T10:10:10.177,1.514107,2,2.0,,,,,,,
2026-06-17T10:10:10.178,1.515049,2,2.0,,,,,,,
2026-06-17T10:10:10.179,1.516061,2,2.0,,,,,,,
2026-06-17T10:10:10.180,1.517025,1,1.0,,,,,,,
2026-06-17T10:10:10.181,1.518073,2604,2604.0,,,,,,,
2026-06-17T10:10:10.182,1.519148,3679,3679.0,,,,,,,
2026-06-17T10:10:10.183,1.520321,3679,3679.0,,,,,,,
2026-06-17T10:10:10.184,1.521331,3679,3679.0,,,,,,,
2026-06-17T10:10:10.186,1.522467,3679,3679.0,,,,,,,
2026-06-17T10:10:10.186,1.523079,3679,3679.0,,,,,,,
2026-06-17T10:10:10.187,1.524050,3681,3681.0,,,,,,,
2026-06-17T10:10:10.188,1.525134,1143,1143.0,,,,,,,
2026-06-17T10:10:10.189,1.526097,0,0.0,,,,,,,
2026-06-17T10:10:10.190,1.527094,2,2.0,,,,,,,
2026-06-17T10:10:10.191,1.528090,3,3.0,,,,,,,
2026-06-17T10:10:10.192,1.529237,1,1.0,,,,,,,
2026-06-17T10:10:10.193,1.530323,1,1.0,,,,,,,
2026-06-17T10:10:10.194,1.531309,3,3.0,,,,,,,
2026-06-17T10:10:10.195,1.532227,3,3.0,,,,,,,
2026-06-17T10:10:10.196,1.533081,2,2.0,,,,,,,
2026-06-17T10:10:10.197,1.534207,0,0.0,,,,,,,
2026-06-17T10:10:10.198,1.535146,3668,3668.0,,,,,,,
2026-06-17T10:10:10.199,1.536034,3679,3679.0,,,,,,,
2026-06-17T10:10:10.200,1.537288,3678,3678.0,,,,,,,
2026-06-17T10:10:10.201,1.538357,3679,3679.0,,,,,,,
2026-06-17T10:10:10.202,1.539128,3678,3678.0,,,,,,,
2026-06-17T10:10:10.203,1.540185,3683,3683.0,,,,,,,
2026-06-17T10:10:10.204,1.541124,3525,3525.0,,,,,,,
2026-06-17T10:10:10.205,1.542067,1,1.0,,,,,,,
2026-06-17T10:10:10.206,1.543232,2,2.0,,,,,,,
2026-06-17T10:10:10.207,1.544168,2,2.0,,,,,,,
2026-06-17T10:10:10.208,1.545087,2,2.0,,,,,,,
2026-06-17T10:10:10.209,1.546052,2,2.0,,,,,,,
2026-06-17T10:10:10.210,1.547257,0,0.0,,,,,,,
2026-06-17T10:10:10.211,1.548175,3,3.0,,,,,,,
2026-06-17T10:10:10.212,1.549305,2,2.0,,,,,,,
2026-06-17T10:10:10.213,1.550266,2,2.0,,,,,,,
2026-06-17T10:10:10.214,1.551321,1729,1729.0,,,,,,,
2026-06-17T10:10:10.215,1.552197,3679,3679.0,,,,,,,
2026-06-17T10:10:10.216,1.553240,3679,3679.0,,,,,,,
2026-06-17T10:10:10.217,1.554340,3679,3679.0,,,,,,,
2026-06-17T10:10:10.218,1.555327,3678,3678.0,,,,,,,
2026-06-17T10:10:10.219,1.556072,3679,3679.0,,,,,,,
2026-06-17T10:10:10.220,1.557124,3681,3681.0,,,,,,,
2026-06-17T10:10:10.221,1.558128,3683,3683.0,,,,,,,
2026-06-17T10:10:10.222,1.559088,1715,1715.0,,,,,,,
2026-06-17T10:10:10.223,1.560089,1,1.0,,,,,,,
2026-06-17T10:10:10.224,1.561069,1,1.0,,,,,,,
2026-06-17T10:10:10.226,1.563124,0,0.0,,,,,,,
2026-06-17T10:10:10.226,1.563410,702,702.0,,,,,,,
2026-06-17T10:10:10.227,1.564193,2235,2235.0,,,,,,,
2026-06-17T10:10:10.228,1.565332,1,1.0,,,,,,,
2026-06-17T10:10:10.229,1.566075,3,3.0,,,,,,,
2026-06-17T10:10:10.230,1.567008,0,0.0,,,,,,,
2026-06-17T10:10:10.231,1.568085,3681,3681.0,,,,,,,
2026-06-17T10:10:10.232,1.569083,3678,3678.0,,,,,,,
2026-06-17T10:10:10.233,1.570104,3680,3680.0,,,,,,,
2026-06-17T10:10:10.234,1.571089,3679,3679.0,,,,,,,
2026-06-17T10:10:10.235,1.572128,3680,3680.0,,,,,,,
2026-06-17T10:10:10.236,1.573308,3680,3680.0,,,,,,,
2026-06-17T10:10:10.237,1.574358,3682,3682.0,,,,,,,
2026-06-17T10:10:10.238,1.575346,1892,1892.0,,,,,,,
2026-06-17T10:10:10.239,1.576131,2,2.0,,,,,,,
2026-06-17T10:10:10.240,1.577328,0,0.0,,,,,,,
2026-06-17T10:10:10.241,1.578032,2,2.0,,,,,,,
2026-06-17T10:10:10.242,1.579090,2,2.0,,,,,,,
2026-06-17T10:10:10.243,1.580048,413,413.0,,,,,,,
2026-06-17T10:10:10.244,1.581059,3,3.0,,,,,,,
2026-06-17T10:10:10.245,1.582069,2,2.0,,,,,,,
2026-06-17T10:10:10.246,1.583015,3,3.0,,,,,,,
2026-06-17T10:10:10.247,1.584012,0,0.0,,,,,,,
2026-06-17T10:10:10.248,1.585035,3679,3679.0,,,,,,,
2026-06-17T10:10:10.249,1.586114,3679,3679.0,,,,,,,
2026-06-17T10:10:10.250,1.587125,3679,3679.0,,,,,,,
2026-06-17T10:10:10.251,1.588082,3678,3678.0,,,,,,,
2026-06-17T10:10:10.252,1.589087,3679,3679.0,,,,,,,
2026-06-17T10:10:10.253,1.590103,3681,3681.0,,,,,,,
2026-06-17T10:10:10.254,1.591081,3682,3682.0,,,,,,,
2026-06-17T10:10:10.255,1.592102,1487,1487.0,,,,,,,
2026-06-17T10:10:10.256,1.593093,2,2.0,,,,,,,
2026-06-17T10:10:10.257,1.594069,1,1.0,,,,,,,
2026-06-17T10:10:10.258,1.595086,2,2.0,,,,,,,
2026-06-17T10:10:10.259,1.596048,2,2.0,,,,,,,
2026-06-17T10:10:10.260,1.597107,1290,1290.0,,,,,,,
2026-06-17T10:10:10.261,1.598061,3,3.0,,,,,,,
2026-06-17T10:10:10.262,1.599068,2,2.0,,,,,,,
2026-06-17T10:10:10.263,1.600076,1,1.0,,,,,,,
2026-06-17T10:10:10.264,1.601096,1833,1833.0,,,,,,,
2026-06-17T10:10:10.265,1.602119,3679,3679.0,,,,,,,
2026-06-17T10:10:10.266,1.603106,3679,3679.0,,,,,,,
2026-06-17T10:10:10.267,1.604115,3678,3678.0,,,,,,,
2026-06-17T10:10:10.268,1.605132,3679,3679.0,,,,,,,
2026-06-17T10:10:10.269,1.606026,3679,3679.0,,,,,,,
2026-06-17T10:10:10.270,1.607036,3679,3679.0,,,,,,,
2026-06-17T10:10:10.271,1.608176,3683,3683.0,,,,,,,
2026-06-17T10:10:10.272,1.609074,970,970.0,,,,,,,
2026-06-17T10:10:10.273,1.610108,2,2.0,,,,,,,
2026-06-17T10:10:10.274,1.611042,3,3.0,,,,,,,
2026-06-17T10:10:10.275,1.612070,2,2.0,,,,,,,
2026-06-17T10:10:10.276,1.613104,1,1.0,,,,,,,
2026-06-17T10:10:10.277,1.614088,1,1.0,,,,,,,
2026-06-17T10:10:10.278,1.615329,2,2.0,,,,,,,
2026-06-17T10:10:10.279,1.616223,2,2.0,,,,,,,
2026-06-17T10:10:10.280,1.617064,2,2.0,,,,,,,
2026-06-17T10:10:10.281,1.618124,966,966.0,,,,,,,
2026-06-17T10:10:10.283,1.619465,3681,3681.0,,,,,,,
2026-06-17T10:10:10.283,1.620252,3679,3679.0,,,,,,,
2026-06-17T10:10:10.284,1.621102,3678,3678.0,,,,,,,
2026-06-17T10:10:10.285,1.622125,3678,3678.0,,,,,,,
2026-06-17T10:10:10.286,1.623115,3681,3681.0,,,,,,,
2026-06-17T10:10:10.287,1.624095,3681,3681.0,,,,,,,
2026-06-17T10:10:10.288,1.625070,1368,1368.0,,,,,,,
2026-06-17T10:10:10.289,1.626086,1,1.0,,,,,,,
2026-06-17T10:10:10.290,1.627051,1,1.0,,,,,,,
2026-06-17T10:10:10.291,1.628070,2,2.0,,,,,,,
2026-06-17T10:10:10.292,1.629248,2,2.0,,,,,,,
2026-06-17T10:10:10.293,1.630086,0,0.0,,,,,,,
2026-06-17T10:10:10.294,1.631110,1,1.0,,,,,,,
2026-06-17T10:10:10.295,1.632187,2,2.0,,,,,,,
2026-06-17T10:10:10.296,1.633053,1,1.0,,,,,,,
2026-06-17T10:10:10.297,1.634097,1,1.0,,,,,,,
2026-06-17T10:10:10.298,1.635124,3503,3503.0,,,,,,,
2026-06-17T10:10:10.299,1.636132,3679,3679.0,,,,,,,
2026-06-17T10:10:10.300,1.637274,3679,3679.0,,,,,,,
2026-06-17T10:10:10.301,1.638095,3679,3679.0,,,,,,,
2026-06-17T10:10:10.302,1.639014,3680,3680.0,,,,,,,
2026-06-17T10:10:10.303,1.640115,3681,3681.0,,,,,,,
2026-06-17T10:10:10.304,1.641057,3682,3682.0,,,,,,,
2026-06-17T10:10:10.305,1.642072,1832,1832.0,,,,,,,
2026-06-17T10:10:10.306,1.643060,1,1.0,,,,,,,
2026-06-17T10:10:10.307,1.644055,1,1.0,,,,,,,
2026-06-17T10:10:10.308,1.645074,1,1.0,,,,,,,
2026-06-17T10:10:10.309,1.646057,2,2.0,,,,,,,
2026-06-17T10:10:10.310,1.647062,841,841.0,,,,,,,
2026-06-17T10:10:10.311,1.648046,2,2.0,,,,,,,
2026-06-17T10:10:10.312,1.649067,3,3.0,,,,,,,
2026-06-17T10:10:10.313,1.650079,3,3.0,,,,,,,
2026-06-17T10:10:10.314,1.651142,364,364.0,,,,,,,
2026-06-17T10:10:10.315,1.652139,3681,3681.0,,,,,,,
2026-06-17T10:10:10.316,1.653117,3679,3679.0,,,,,,,
2026-06-17T10:10:10.317,1.654249,3677,3677.0,,,,,,,
2026-06-17T10:10:10.318,1.655100,3678,3678.0,,,,,,,
2026-06-17T10:10:10.319,1.656082,3679,3679.0,,,,,,,
2026-06-17T10:10:10.320,1.657058,3680,3680.0,,,,,,,
2026-06-17T10:10:10.321,1.658136,3682,3682.0,,,,,,,
2026-06-17T10:10:10.322,1.659390,1623,1623.0,,,,,,,
2026-06-17T10:10:10.323,1.660030,0,0.0,,,,,,,
2026-06-17T10:10:10.325,1.661459,1,1.0,,,,,,,
2026-06-17T10:10:10.325,1.662230,0,0.0,,,,,,,
2026-06-17T10:10:10.326,1.663364,1,1.0,,,,,,,
2026-06-17T10:10:10.327,1.664209,1167,1167.0,,,,,,,
2026-06-17T10:10:10.328,1.665225,2,2.0,,,,,,,
2026-06-17T10:10:10.329,1.666305,2,2.0,,,,,,,
2026-06-17T10:10:10.330,1.667205,2,2.0,,,,,,,
2026-06-17T10:10:10.332,1.668459,1509,1509.0,,,,,,,
2026-06-17T10:10:10.332,1.669121,3679,3679.0,,,,,,,
2026-06-17T10:10:10.333,1.670260,3679,3679.0,,,,,,,
2026-06-17T10:10:10.334,1.671252,3678,3678.0,,,,,,,
2026-06-17T10:10:10.335,1.672305,3679,3679.0,,,,,,,
2026-06-17T10:10:10.336,1.673144,3679,3679.0,,,,,,,
2026-06-17T10:10:10.337,1.674089,3683,3683.0,,,,,,,
2026-06-17T10:10:10.338,1.675142,3451,3451.0,,,,,,,
2026-06-17T10:10:10.339,1.676054,512,512.0,,,,,,,
2026-06-17T10:10:10.340,1.677077,2,2.0,,,,,,,
2026-06-17T10:10:10.341,1.677993,2,2.0,,,,,,,
2026-06-17T10:10:10.342,1.679077,1,1.0,,,,,,,
2026-06-17T10:10:10.343,1.680027,0,0.0,,,,,,,
2026-06-17T10:10:10.344,1.681299,24,24.0,,,,,,,
2026-06-17T10:10:10.345,1.681497,3,3.0,,,,,,,
2026-06-17T10:10:10.345,1.682249,2,2.0,,,,,,,
2026-06-17T10:10:10.346,1.683323,2,2.0,,,,,,,
2026-06-17T10:10:10.348,1.685258,2262,2262.0,,,,,,,
2026-06-17T10:10:10.349,1.686329,3678,3678.0,,,,,,,
2026-06-17T10:10:10.350,1.687100,3679,3679.0,,,,,,,
2026-06-17T10:10:10.351,1.688121,3677,3677.0,,,,,,,
2026-06-17T10:10:10.352,1.689123,3679,3679.0,,,,,,,
2026-06-17T10:10:10.353,1.690112,3679,3679.0,,,,,,,
2026-06-17T10:10:10.354,1.691106,3679,3679.0,,,,,,,
2026-06-17T10:10:10.355,1.692064,2750,2750.0,,,,,,,
2026-06-17T10:10:10.356,1.693091,111,111.0,,,,,,,
2026-06-17T10:10:10.356,1.693276,2,2.0,,,,,,,
2026-06-17T10:10:10.357,1.694102,2,2.0,,,,,,,
2026-06-17T10:10:10.358,1.695038,0,0.0,,,,,,,
2026-06-17T10:10:10.360,1.697286,414,414.0,,,,,,,
2026-06-17T10:10:10.361,1.698205,118,118.0,,,,,,,
2026-06-17T10:10:10.361,1.698356,3,3.0,,,,,,,
2026-06-17T10:10:10.362,1.699184,2,2.0,,,,,,,
2026-06-17T10:10:10.363,1.700338,1,1.0,,,,,,,
2026-06-17T10:10:10.365,1.702267,3579,3579.0,,,,,,,
2026-06-17T10:10:10.366,1.703080,3682,3682.0,,,,,,,
2026-06-17T10:10:10.367,1.704412,3678,3678.0,,,,,,,
2026-06-17T10:10:10.368,1.705231,3679,3679.0,,,,,,,
2026-06-17T10:10:10.369,1.706117,3679,3679.0,,,,,,,
2026-06-17T10:10:10.370,1.707178,3679,3679.0,,,,,,,
2026-06-17T10:10:10.371,1.708101,3681,3681.0,,,,,,,
2026-06-17T10:10:10.372,1.709157,2142,2142.0,,,,,,,
2026-06-17T10:10:10.372,1.709368,1,1.0,,,,,,,
2026-06-17T10:10:10.373,1.710084,2,2.0,,,,,,,
2026-06-17T10:10:10.374,1.711063,1,1.0,,,,,,,
2026-06-17T10:10:10.375,1.712133,0,0.0,,,,,,,
2026-06-17T10:10:10.377,1.714028,812,812.0,,,,,,,
2026-06-17T10:10:10.377,1.714160,2,2.0,,,,,,,
2026-06-17T10:10:10.378,1.715050,1,1.0,,,,,,,
2026-06-17T10:10:10.379,1.716074,1,1.0,,,,,,,
2026-06-17T10:10:10.380,1.717099,895,895.0,,,,,,,
2026-06-17T10:10:10.382,1.718994,3681,3681.0,,,,,,,
2026-06-17T10:10:10.383,1.720221,3679,3679.0,,,,,,,
2026-06-17T10:10:10.384,1.721272,3679,3679.0,,,,,,,
2026-06-17T10:10:10.385,1.721986,3679,3679.0,,,,,,,
2026-06-17T10:10:10.386,1.723062,3680,3680.0,,,,,,,
2026-06-17T10:10:10.387,1.724150,3681,3681.0,,,,,,,
2026-06-17T10:10:10.388,1.725142,3682,3682.0,,,,,,,
2026-06-17T10:10:10.389,1.726173,1659,1659.0,,,,,,,
2026-06-17T10:10:10.389,1.726323,2,2.0,,,,,,,
2026-06-17T10:10:10.390,1.727307,1,1.0,,,,,,,
2026-06-17T10:10:10.391,1.728292,1,1.0,,,,,,,
2026-06-17T10:10:10.392,1.729165,1,1.0,,,,,,,
2026-06-17T10:10:10.394,1.731307,1050,1050.0,,,,,,,
2026-06-17T10:10:10.395,1.731464,2,2.0,,,,,,,
2026-06-17T10:10:10.395,1.732087,2,2.0,,,,,,,
2026-06-17T10:10:10.396,1.733274,2,2.0,,,,,,,
2026-06-17T10:10:10.398,1.735286,1846,1846.0,,,,,,,
2026-06-17T10:10:10.399,1.735466,3679,3679.0,,,,,,,
2026-06-17T10:10:10.399,1.736045,3678,3678.0,,,,,,,
2026-06-17T10:10:10.400,1.737101,3681,3681.0,,,,,,,
2026-06-17T10:10:10.401,1.738135,3678,3678.0,,,,,,,
2026-06-17T10:10:10.402,1.739065,3679,3679.0,,,,,,,
2026-06-17T10:10:10.403,1.740089,3682,3682.0,,,,,,,
2026-06-17T10:10:10.404,1.741134,2926,2926.0,,,,,,,
2026-06-17T10:10:10.405,1.742231,113,113.0,,,,,,,
2026-06-17T10:10:10.406,1.743097,2,2.0,,,,,,,
2026-06-17T10:10:10.407,1.744057,2,2.0,,,,,,,
2026-06-17T10:10:10.408,1.745075,0,0.0,,,,,,,
2026-06-17T10:10:10.409,1.746059,0,0.0,,,,,,,
2026-06-17T10:10:10.410,1.747208,2,2.0,,,,,,,
2026-06-17T10:10:10.411,1.748269,2,2.0,,,,,,,
2026-06-17T10:10:10.412,1.749325,2,2.0,,,,,,,
2026-06-17T10:10:10.413,1.750360,1,1.0,,,,,,,
2026-06-17T10:10:10.414,1.751341,1998,1998.0,,,,,,,
2026-06-17T10:10:10.415,1.752095,3680,3680.0,,,,,,,
2026-06-17T10:10:10.416,1.753051,3679,3679.0,,,,,,,
2026-06-17T10:10:10.417,1.754088,3679,3679.0,,,,,,,
2026-06-17T10:10:10.418,1.755082,3678,3678.0,,,,,,,
2026-06-17T10:10:10.419,1.756029,3679,3679.0,,,,,,,
2026-06-17T10:10:10.420,1.757072,3683,3683.0,,,,,,,
2026-06-17T10:10:10.421,1.758068,1504,1504.0,,,,,,,
2026-06-17T10:10:10.422,1.759078,0,0.0,,,,,,,
2026-06-17T10:10:10.423,1.760096,2,2.0,,,,,,,
2026-06-17T10:10:10.424,1.761125,1,1.0,,,,,,,
2026-06-17T10:10:10.425,1.762063,2,2.0,,,,,,,
2026-06-17T10:10:10.426,1.763048,1,1.0,,,,,,,
2026-06-17T10:10:10.427,1.764091,2,2.0,,,,,,,
2026-06-17T10:10:10.428,1.765060,3,3.0,,,,,,,
2026-06-17T10:10:10.429,1.766113,1,1.0,,,,,,,
2026-06-17T10:10:10.430,1.767015,1,1.0,,,,,,,
2026-06-17T10:10:10.431,1.768069,2854,2854.0,,,,,,,
2026-06-17T10:10:10.432,1.769092,3679,3679.0,,,,,,,
2026-06-17T10:10:10.433,1.770176,3679,3679.0,,,,,,,
2026-06-17T10:10:10.434,1.771059,3681,3681.0,,,,,,,
2026-06-17T10:10:10.435,1.772043,3679,3679.0,,,,,,,
2026-06-17T10:10:10.436,1.773132,3680,3680.0,,,,,,,
2026-06-17T10:10:10.437,1.774113,3683,3683.0,,,,,,,
2026-06-17T10:10:10.438,1.775121,578,578.0,,,,,,,
2026-06-17T10:10:10.439,1.776081,1,1.0,,,,,,,
2026-06-17T10:10:10.440,1.777100,1,1.0,,,,,,,
2026-06-17T10:10:10.441,1.778097,1,1.0,,,,,,,
2026-06-17T10:10:10.442,1.779094,1,1.0,,,,,,,
2026-06-17T10:10:10.443,1.780076,230,230.0,,,,,,,
2026-06-17T10:10:10.444,1.781082,3,3.0,,,,,,,
2026-06-17T10:10:10.445,1.782100,2,2.0,,,,,,,
2026-06-17T10:10:10.446,1.783038,2,2.0,,,,,,,
2026-06-17T10:10:10.447,1.784090,1085,1085.0,,,,,,,
2026-06-17T10:10:10.449,1.786059,3679,3679.0,,,,,,,
2026-06-17T10:10:10.449,1.786233,3679,3679.0,,,,,,,
2026-06-17T10:10:10.450,1.787177,3678,3678.0,,,,,,,
2026-06-17T10:10:10.451,1.788054,3678,3678.0,,,,,,,
2026-06-17T10:10:10.452,1.789092,3681,3681.0,,,,,,,
2026-06-17T10:10:10.453,1.790101,3679,3679.0,,,,,,,
2026-06-17T10:10:10.454,1.791090,3683,3683.0,,,,,,,
2026-06-17T10:10:10.455,1.792070,1172,1172.0,,,,,,,
2026-06-17T10:10:10.456,1.793196,1,1.0,,,,,,,
2026-06-17T10:10:10.457,1.794282,1,1.0,,,,,,,
2026-06-17T10:10:10.458,1.795324,0,0.0,,,,,,,
2026-06-17T10:10:10.459,1.796209,136,136.0,,,,,,,
2026-06-17T10:10:10.460,1.797316,904,904.0,,,,,,,
2026-06-17T10:10:10.461,1.798116,2,2.0,,,,,,,
2026-06-17T10:10:10.462,1.799407,2,2.0,,,,,,,
2026-06-17T10:10:10.463,1.800195,2,2.0,,,,,,,
2026-06-17T10:10:10.465,1.801477,2683,2683.0,,,,,,,
2026-06-17T10:10:10.465,1.802330,3679,3679.0,,,,,,,
2026-06-17T10:10:10.466,1.803090,3679,3679.0,,,,,,,
2026-06-17T10:10:10.467,1.804129,3679,3679.0,,,,,,,
2026-06-17T10:10:10.468,1.805199,3679,3679.0,,,,,,,
2026-06-17T10:10:10.469,1.806388,3680,3680.0,,,,,,,
2026-06-17T10:10:10.470,1.807144,3682,3682.0,,,,,,,
2026-06-17T10:10:10.471,1.808057,3322,3322.0,,,,,,,
2026-06-17T10:10:10.472,1.809242,1116,1116.0,,,,,,,
2026-06-17T10:10:10.473,1.810321,1,1.0,,,,,,,
2026-06-17T10:10:10.474,1.811306,0,0.0,,,,,,,
2026-06-17T10:10:10.475,1.812314,2,2.0,,,,,,,
2026-06-17T10:10:10.476,1.813325,602,602.0,,,,,,,
2026-06-17T10:10:10.477,1.814266,703,703.0,,,,,,,
2026-06-17T10:10:10.478,1.815313,2,2.0,,,,,,,
2026-06-17T10:10:10.479,1.816308,1,1.0,,,,,,,
2026-06-17T10:10:10.480,1.817350,158,158.0,,,,,,,
2026-06-17T10:10:10.481,1.818043,3679,3679.0,,,,,,,
2026-06-17T10:10:10.482,1.819123,3679,3679.0,,,,,,,
2026-06-17T10:10:10.483,1.820091,3679,3679.0,,,,,,,
2026-06-17T10:10:10.484,1.821071,3679,3679.0,,,,,,,
2026-06-17T10:10:10.485,1.822118,3679,3679.0,,,,,,,
2026-06-17T10:10:10.486,1.823116,3679,3679.0,,,,,,,
2026-06-17T10:10:10.487,1.824104,3683,3683.0,,,,,,,
2026-06-17T10:10:10.488,1.825098,2425,2425.0,,,,,,,
2026-06-17T10:10:10.489,1.826126,311,311.0,,,,,,,
2026-06-17T10:10:10.490,1.827118,1,1.0,,,,,,,
2026-06-17T10:10:10.491,1.828315,2,2.0,,,,,,,
2026-06-17T10:10:10.492,1.829280,1,1.0,,,,,,,
2026-06-17T10:10:10.493,1.830372,1104,1104.0,,,,,,,
2026-06-17T10:10:10.494,1.831283,1,1.0,,,,,,,
2026-06-17T10:10:10.495,1.832287,2,2.0,,,,,,,
2026-06-17T10:10:10.496,1.833261,2,2.0,,,,,,,
2026-06-17T10:10:10.497,1.834087,1032,1032.0,,,,,,,
2026-06-17T10:10:10.498,1.835100,3681,3681.0,,,,,,,
2026-06-17T10:10:10.499,1.836092,3680,3680.0,,,,,,,
2026-06-17T10:10:10.500,1.837049,3681,3681.0,,,,,,,
2026-06-17T10:10:10.502,1.838463,3679,3679.0,,,,,,,
2026-06-17T10:10:10.502,1.839065,3679,3679.0,,,,,,,
2026-06-17T10:10:10.503,1.840042,3679,3679.0,,,,,,,
2026-06-17T10:10:10.504,1.841214,3682,3682.0,,,,,,,
2026-06-17T10:10:10.505,1.842232,1733,1733.0,,,,,,,
2026-06-17T10:10:10.506,1.843206,1,1.0,,,,,,,
2026-06-17T10:10:10.507,1.844281,2,2.0,,,,,,,
2026-06-17T10:10:10.508,1.845314,0,0.0,,,,,,,
2026-06-17T10:10:10.509,1.846316,0,0.0,,,,,,,
2026-06-17T10:10:10.510,1.847070,721,721.0,,,,,,,
2026-06-17T10:10:10.511,1.848065,1,1.0,,,,,,,
2026-06-17T10:10:10.512,1.849019,2,2.0,,,,,,,
2026-06-17T10:10:10.513,1.850096,0,0.0,,,,,,,
2026-06-17T10:10:10.514,1.851169,1719,1719.0,,,,,,,
2026-06-17T10:10:10.515,1.852195,3679,3679.0,,,,,,,
2026-06-17T10:10:10.517,1.853455,3679,3679.0,,,,,,,
2026-06-17T10:10:10.517,1.854123,3679,3679.0,,,,,,,
2026-06-17T10:10:10.518,1.855282,3678,3678.0,,,,,,,
2026-06-17T10:10:10.519,1.856181,3679,3679.0,,,,,,,
2026-06-17T10:10:10.520,1.857144,3682,3682.0,,,,,,,
2026-06-17T10:10:10.521,1.858148,3215,3215.0,,,,,,,
2026-06-17T10:10:10.522,1.859120,602,602.0,,,,,,,
2026-06-17T10:10:10.523,1.860140,2,2.0,,,,,,,
2026-06-17T10:10:10.524,1.861123,2,2.0,,,,,,,
2026-06-17T10:10:10.525,1.862067,1,1.0,,,,,,,
2026-06-17T10:10:10.526,1.863118,154,154.0,,,,,,,
2026-06-17T10:10:10.527,1.864085,613,613.0,,,,,,,
2026-06-17T10:10:10.528,1.865124,2,2.0,,,,,,,
2026-06-17T10:10:10.529,1.866042,1,1.0,,,,,,,
2026-06-17T10:10:10.530,1.867175,1,1.0,,,,,,,
2026-06-17T10:10:10.531,1.868099,2744,2744.0,,,,,,,
2026-06-17T10:10:10.532,1.869130,3679,3679.0,,,,,,,
2026-06-17T10:10:10.533,1.870117,3680,3680.0,,,,,,,
2026-06-17T10:10:10.534,1.871077,3679,3679.0,,,,,,,
2026-06-17T10:10:10.535,1.872143,3679,3679.0,,,,,,,
2026-06-17T10:10:10.536,1.873120,3679,3679.0,,,,,,,
2026-06-17T10:10:10.537,1.874116,3682,3682.0,,,,,,,
2026-06-17T10:10:10.538,1.875193,2691,2691.0,,,,,,,
2026-06-17T10:10:10.539,1.876117,267,267.0,,,,,,,
2026-06-17T10:10:10.540,1.877107,1,1.0,,,,,,,
2026-06-17T10:10:10.541,1.878047,2,2.0,,,,,,,
2026-06-17T10:10:10.542,1.879145,2,2.0,,,,,,,
2026-06-17T10:10:10.543,1.880123,319,319.0,,,,,,,
2026-06-17T10:10:10.544,1.881109,2,2.0,,,,,,,
2026-06-17T10:10:10.545,1.882100,2,2.0,,,,,,,
2026-06-17T10:10:10.546,1.883112,2,2.0,,,,,,,
2026-06-17T10:10:10.547,1.884095,215,215.0,,,,,,,
2026-06-17T10:10:10.548,1.885098,3626,3626.0,,,,,,,
2026-06-17T10:10:10.549,1.886091,3679,3679.0,,,,,,,
2026-06-17T10:10:10.550,1.887138,3679,3679.0,,,,,,,
2026-06-17T10:10:10.551,1.888082,3679,3679.0,,,,,,,
2026-06-17T10:10:10.552,1.889114,3679,3679.0,,,,,,,
2026-06-17T10:10:10.553,1.890090,3679,3679.0,,,,,,,
2026-06-17T10:10:10.554,1.891108,3681,3681.0,,,,,,,
2026-06-17T10:10:10.555,1.892079,1625,1625.0,,,,,,,
2026-06-17T10:10:10.556,1.893096,1,1.0,,,,,,,
2026-06-17T10:10:10.557,1.894139,2,2.0,,,,,,,
2026-06-17T10:10:10.558,1.895042,0,0.0,,,,,,,
2026-06-17T10:10:10.559,1.896101,1,1.0,,,,,,,
2026-06-17T10:10:10.560,1.897090,427,427.0,,,,,,,
2026-06-17T10:10:10.561,1.898223,1,1.0,,,,,,,
2026-06-17T10:10:10.562,1.899307,2,2.0,,,,,,,
2026-06-17T10:10:10.563,1.900155,1,1.0,,,,,,,
2026-06-17T10:10:10.564,1.901100,664,664.0,,,,,,,
2026-06-17T10:10:10.565,1.902233,3681,3681.0,,,,,,,
2026-06-17T10:10:10.566,1.903349,3679,3679.0,,,,,,,
2026-06-17T10:10:10.567,1.904284,3679,3679.0,,,,,,,
2026-06-17T10:10:10.568,1.905077,3679,3679.0,,,,,,,
2026-06-17T10:10:10.569,1.906147,3679,3679.0,,,,,,,
2026-06-17T10:10:10.570,1.907014,3682,3682.0,,,,,,,
2026-06-17T10:10:10.571,1.908073,3407,3407.0,,,,,,,
2026-06-17T10:10:10.572,1.909065,879,879.0,,,,,,,
2026-06-17T10:10:10.573,1.910106,1,1.0,,,,,,,
2026-06-17T10:10:10.574,1.911001,1,1.0,,,,,,,
2026-06-17T10:10:10.575,1.912063,1,1.0,,,,,,,
2026-06-17T10:10:10.576,1.913126,1,1.0,,,,,,,
2026-06-17T10:10:10.577,1.914083,874,874.0,,,,,,,
2026-06-17T10:10:10.578,1.915092,2,2.0,,,,,,,
2026-06-17T10:10:10.579,1.916046,3,3.0,,,,,,,
2026-06-17T10:10:10.580,1.917096,1,1.0,,,,,,,
2026-06-17T10:10:10.581,1.918108,2009,2009.0,,,,,,,
2026-06-17T10:10:10.582,1.919097,3679,3679.0,,,,,,,
2026-06-17T10:10:10.583,1.920078,3679,3679.0,,,,,,,
2026-06-17T10:10:10.584,1.921197,3679,3679.0,,,,,,,
2026-06-17T10:10:10.585,1.922061,3679,3679.0,,,,,,,
2026-06-17T10:10:10.586,1.923095,3681,3681.0,,,,,,,
2026-06-17T10:10:10.587,1.924087,3679,3679.0,,,,,,,
2026-06-17T10:10:10.588,1.925118,2921,2921.0,,,,,,,
2026-06-17T10:10:10.589,1.926070,412,412.0,,,,,,,
2026-06-17T10:10:10.590,1.927053,0,0.0,,,,,,,
2026-06-17T10:10:10.591,1.928117,2,2.0,,,,,,,
2026-06-17T10:10:10.592,1.929064,0,0.0,,,,,,,
2026-06-17T10:10:10.593,1.930089,271,271.0,,,,,,,
2026-06-17T10:10:10.594,1.931091,136,136.0,,,,,,,
2026-06-17T10:10:10.595,1.932010,2,2.0,,,,,,,
2026-06-17T10:10:10.596,1.933043,2,2.0,,,,,,,
2026-06-17T10:10:10.597,1.934103,1,1.0,,,,,,,
2026-06-17T10:10:10.598,1.935089,2911,2911.0,,,,,,,
2026-06-17T10:10:10.599,1.936101,3681,3681.0,,,,,,,
2026-06-17T10:10:10.600,1.937124,3679,3679.0,,,,,,,
2026-06-17T10:10:10.601,1.938113,3679,3679.0,,,,,,,
2026-06-17T10:10:10.602,1.939146,3679,3679.0,,,,,,,
2026-06-17T10:10:10.603,1.940143,3682,3682.0,,,,,,,
2026-06-17T10:10:10.604,1.941084,3681,3681.0,,,,,,,
2026-06-17T10:10:10.605,1.942120,2031,2031.0,,,,,,,
2026-06-17T10:10:10.606,1.943057,1,1.0,,,,,,,
2026-06-17T10:10:10.607,1.944052,2,2.0,,,,,,,
2026-06-17T10:10:10.608,1.945098,2,2.0,,,,,,,
2026-06-17T10:10:10.609,1.946038,1,1.0,,,,,,,
2026-06-17T10:10:10.610,1.947143,621,621.0,,,,,,,
2026-06-17T10:10:10.611,1.948150,2,2.0,,,,,,,
2026-06-17T10:10:10.612,1.949184,2,2.0,,,,,,,
2026-06-17T10:10:10.613,1.950085,2,2.0,,,,,,,
2026-06-17T10:10:10.614,1.951122,506,506.0,,,,,,,
2026-06-17T10:10:10.615,1.952100,3682,3682.0,,,,,,,
2026-06-17T10:10:10.616,1.953076,3679,3679.0,,,,,,,
2026-06-17T10:10:10.617,1.954096,3678,3678.0,,,,,,,
2026-06-17T10:10:10.618,1.955074,3679,3679.0,,,,,,,
2026-06-17T10:10:10.619,1.956098,3679,3679.0,,,,,,,
2026-06-17T10:10:10.620,1.957143,3681,3681.0,,,,,,,
2026-06-17T10:10:10.621,1.958126,3684,3684.0,,,,,,,
2026-06-17T10:10:10.622,1.959114,1486,1486.0,,,,,,,
2026-06-17T10:10:10.623,1.960077,2,2.0,,,,,,,
2026-06-17T10:10:10.624,1.961087,1,1.0,,,,,,,
2026-06-17T10:10:10.625,1.962006,0,0.0,,,,,,,
2026-06-17T10:10:10.626,1.963072,1,1.0,,,,,,,
2026-06-17T10:10:10.627,1.964031,0,0.0,,,,,,,
2026-06-17T10:10:10.628,1.965012,2,2.0,,,,,,,
2026-06-17T10:10:10.629,1.966132,3,3.0,,,,,,,
2026-06-17T10:10:10.630,1.967085,1,1.0,,,,,,,
2026-06-17T10:10:10.631,1.968041,236,236.0,,,,,,,
2026-06-17T10:10:10.632,1.969068,2850,2850.0,,,,,,,
2026-06-17T10:10:10.633,1.970086,3679,3679.0,,,,,,,
2026-06-17T10:10:10.634,1.971108,3678,3678.0,,,,,,,
2026-06-17T10:10:10.635,1.972085,3680,3680.0,,,,,,,
2026-06-17T10:10:10.636,1.973046,3679,3679.0,,,,,,,
2026-06-17T10:10:10.637,1.974133,2990,2990.0,,,,,,,
2026-06-17T10:10:10.638,1.975058,2,2.0,,,,,,,
2026-06-17T10:10:10.639,1.976034,1,1.0,,,,,,,
2026-06-17T10:10:10.640,1.977031,3,3.0,,,,,,,
2026-06-17T10:10:10.641,1.978049,3,3.0,,,,,,,
2026-06-17T10:10:10.642,1.979063,3,3.0,,,,,,,
2026-06-17T10:10:10.643,1.980010,2,2.0,,,,,,,
2026-06-17T10:10:10.644,1.981063,3,3.0,,,,,,,
2026-06-17T10:10:10.645,1.982096,2,2.0,,,,,,,
2026-06-17T10:10:10.646,1.983089,5,5.0,,,,,,,
2026-06-17T10:10:10.647,1.984087,2,2.0,,,,,,,
2026-06-17T10:10:10.648,1.985057,1,1.0,,,,,,,
2026-06-17T10:10:10.649,1.986094,289,289.0,,,,,,,
2026-06-17T10:10:10.650,1.987166,3682,3682.0,,,,,,,
2026-06-17T10:10:10.651,1.988067,3679,3679.0,,,,,,,
2026-06-17T10:10:10.652,1.989136,3681,3681.0,,,,,,,
2026-06-17T10:10:10.653,1.990227,3682,3682.0,,,,,,,
2026-06-17T10:10:10.654,1.991019,717,717.0,,,,,,,
2026-06-17T10:10:10.655,1.992057,2,2.0,,,,,,,
2026-06-17T10:10:10.656,1.993040,3,3.0,,,,,,,
2026-06-17T10:10:10.657,1.994015,3,3.0,,,,,,,
2026-06-17T10:10:10.658,1.995037,2,2.0,,,,,,,
2026-06-17T10:10:10.659,1.996064,3,3.0,,,,,,,
2026-06-17T10:10:10.660,1.997075,1,1.0,,,,,,,
2026-06-17T10:10:10.661,1.998054,4,4.0,,,,,,,
2026-06-17T10:10:10.662,1.999047,3,3.0,,,,,,,
2026-06-17T10:10:10.663,1.999917,4,4.0,,,,,,,
2026-06-17T10:10:10.664,2.000938,2,2.0,,,,,,,
2026-06-17T10:10:10.665,2.002016,1,1.0,,,,,,,
2026-06-17T10:10:10.666,2.003044,1469,1469.0,,,,,,,
2026-06-17T10:10:10.667,2.004080,3679,3679.0,,,,,,,
2026-06-17T10:10:10.668,2.005078,3678,3678.0,,,,,,,
2026-06-17T10:10:10.670,2.007112,3681,3681.0,,,,,,,
2026-06-17T10:10:10.670,2.007283,3682,3682.0,,,,,,,
2026-06-17T10:10:10.671,2.008030,762,762.0,,,,,,,
2026-06-17T10:10:10.671,2.008266,2,2.0,,,,,,,
2026-06-17T10:10:10.672,2.009038,2,2.0,,,,,,,
2026-06-17T10:10:10.673,2.010093,2,2.0,,,,,,,
2026-06-17T10:10:10.674,2.011062,2,2.0,,,,,,,
2026-06-17T10:10:10.675,2.012045,2,2.0,,,,,,,
2026-06-17T10:10:10.676,2.013118,3,3.0,,,,,,,
2026-06-17T10:10:10.677,2.014057,3,3.0,,,,,,,
2026-06-17T10:10:10.678,2.015073,3,3.0,,,,,,,
2026-06-17T10:10:10.679,2.016081,2,2.0,,,,,,,
2026-06-17T10:10:10.680,2.017131,1,1.0,,,,,,,
2026-06-17T10:10:10.681,2.018054,1,1.0,,,,,,,
2026-06-17T10:10:10.683,2.020088,2683,2683.0,,,,,,,
2026-06-17T10:10:10.684,2.021027,3679,3679.0,,,,,,,
2026-06-17T10:10:10.685,2.022036,3681,3681.0,,,,,,,
2026-06-17T10:10:10.686,2.023036,3682,3682.0,,,,,,,
2026-06-17T10:10:10.687,2.024082,1932,1932.0,,,,,,,
2026-06-17T10:10:10.687,2.024228,2,2.0,,,,,,,
2026-06-17T10:10:10.688,2.025122,4,4.0,,,,,,,
2026-06-17T10:10:10.689,2.026277,2,2.0,,,,,,,
2026-06-17T10:10:10.690,2.027053,2,2.0,,,,,,,
2026-06-17T10:10:10.691,2.028031,2,2.0,,,,,,,
2026-06-17T10:10:10.692,2.029087,3,3.0,,,,,,,
2026-06-17T10:10:10.693,2.030217,2,2.0,,,,,,,
2026-06-17T10:10:10.694,2.031222,1,1.0,,,,,,,
2026-06-17T10:10:10.695,2.032356,1,1.0,,,,,,,
2026-06-17T10:10:10.696,2.033313,1,1.0,,,,,,,
2026-06-17T10:10:10.697,2.034044,2,2.0,,,,,,,
2026-06-17T10:10:10.699,2.036044,402,402.0,,,,,,,
2026-06-17T10:10:10.700,2.037022,3679,3679.0,,,,,,,
2026-06-17T10:10:10.701,2.038271,3679,3679.0,,,,,,,
2026-06-17T10:10:10.702,2.039073,3682,3682.0,,,,,,,
2026-06-17T10:10:10.703,2.040063,3681,3681.0,,,,,,,
2026-06-17T10:10:10.704,2.041072,2730,2730.0,,,,,,,
2026-06-17T10:10:10.704,2.041222,2,2.0,,,,,,,
2026-06-17T10:10:10.705,2.042003,1,1.0,,,,,,,
2026-06-17T10:10:10.706,2.043124,1,1.0,,,,,,,
2026-06-17T10:10:10.707,2.044052,0,0.0,,,,,,,
2026-06-17T10:10:10.708,2.045056,2,2.0,,,,,,,
2026-06-17T10:10:10.709,2.046025,0,0.0,,,,,,,
2026-06-17T10:10:10.710,2.047034,0,0.0,,,,,,,
2026-06-17T10:10:10.711,2.048049,0,0.0,,,,,,,
2026-06-17T10:10:10.712,2.049040,2,2.0,,,,,,,
2026-06-17T10:10:10.713,2.050039,3,3.0,,,,,,,
2026-06-17T10:10:10.714,2.051070,1,1.0,,,,,,,
2026-06-17T10:10:10.716,2.053038,1726,1726.0,,,,,,,
2026-06-17T10:10:10.717,2.054042,3679,3679.0,,,,,,,
2026-06-17T10:10:10.718,2.055015,3679,3679.0,,,,,,,
2026-06-17T10:10:10.719,2.056019,3679,3679.0,,,,,,,
2026-06-17T10:10:10.720,2.057032,3681,3681.0,,,,,,,
2026-06-17T10:10:10.720,2.057203,532,532.0,,,,,,,
2026-06-17T10:10:10.721,2.058001,1,1.0,,,,,,,
2026-06-17T10:10:10.722,2.059119,2,2.0,,,,,,,
2026-06-17T10:10:10.723,2.060069,1,1.0,,,,,,,
2026-06-17T10:10:10.724,2.061073,1,1.0,,,,,,,
2026-06-17T10:10:10.725,2.062106,1,1.0,,,,,,,
2026-06-17T10:10:10.727,2.063612,1,1.0,,,,,,,
2026-06-17T10:10:10.727,2.064106,1,1.0,,,,,,,
2026-06-17T10:10:10.728,2.065436,126,126.0,,,,,,,
2026-06-17T10:10:10.729,2.066210,260,260.0,,,,,,,
2026-06-17T10:10:10.730,2.067303,384,384.0,,,,,,,
2026-06-17T10:10:10.731,2.068213,495,495.0,,,,,,,
2026-06-17T10:10:10.732,2.069284,600,600.0,,,,,,,
2026-06-17T10:10:10.733,2.070351,1040,1040.0,,,,,,,
2026-06-17T10:10:10.734,2.071322,3307,3307.0,,,,,,,
2026-06-17T10:10:10.735,2.072342,2767,2767.0,,,,,,,
2026-06-17T10:10:10.736,2.073308,601,601.0,,,,,,,
2026-06-17T10:10:10.737,2.074331,638,638.0,,,,,,,
2026-06-17T10:10:10.738,2.075362,739,739.0,,,,,,,
2026-06-17T10:10:10.739,2.076088,829,829.0,,,,,,,
2026-06-17T10:10:10.740,2.077127,906,906.0,,,,,,,
2026-06-17T10:10:10.741,2.078052,977,977.0,,,,,,,
2026-06-17T10:10:10.742,2.079084,1042,1042.0,,,,,,,
2026-06-17T10:10:10.743,2.080126,1103,1103.0,,,,,,,
2026-06-17T10:10:10.744,2.081143,1157,1157.0,,,,,,,
2026-06-17T10:10:10.745,2.082102,1208,1208.0,,,,,,,
2026-06-17T10:10:10.746,2.083379,1254,1254.0,,,,,,,
2026-06-17T10:10:10.747,2.084325,1298,1298.0,,,,,,,
2026-06-17T10:10:10.748,2.085125,1338,1338.0,,,,,,,
2026-06-17T10:10:10.749,2.086107,1374,1374.0,,,,,,,
2026-06-17T10:10:10.750,2.087134,1587,1587.0,,,,,,,
2026-06-17T10:10:10.751,2.088313,2986,2986.0,,,,,,,
2026-06-17T10:10:10.752,2.089352,2183,2183.0,,,,,,,
2026-06-17T10:10:10.753,2.090102,1301,1301.0,,,,,,,
2026-06-17T10:10:10.754,2.091140,1339,1339.0,,,,,,,
2026-06-17T10:10:10.755,2.092077,1382,1382.0,,,,,,,
2026-06-17T10:10:10.756,2.093099,1416,1416.0,,,,,,,
2026-06-17T10:10:10.757,2.094112,1452,1452.0,,,,,,,
2026-06-17T10:10:10.758,2.095104,1481,1481.0,,,,,,,
2026-06-17T10:10:10.759,2.096106,1508,1508.0,,,,,,,
2026-06-17T10:10:10.760,2.097074,1532,1532.0,,,,,,,
2026-06-17T10:10:10.761,2.098229,1554,1554.0,,,,,,,
2026-06-17T10:10:10.762,2.099037,1574,1574.0,,,,,,,
2026-06-17T10:10:10.763,2.100114,1595,1595.0,,,,,,,
2026-06-17T10:10:10.764,2.101085,1611,1611.0,,,,,,,
2026-06-17T10:10:10.765,2.102217,1961,1961.0,,,,,,,
2026-06-17T10:10:10.766,2.103114,3679,3679.0,,,,,,,
2026-06-17T10:10:10.767,2.104165,3679,3679.0,,,,,,,
2026-06-17T10:10:10.768,2.105096,3679,3679.0,,,,,,,
2026-06-17T10:10:10.769,2.106112,3679,3679.0,,,,,,,
2026-06-17T10:10:10.770,2.107113,3375,3375.0,,,,,,,
2026-06-17T10:10:10.771,2.108062,795,795.0,,,,,,,
2026-06-17T10:10:10.772,2.109039,617,617.0,,,,,,,
2026-06-17T10:10:10.774,2.110653,723,723.0,,,,,,,
2026-06-17T10:10:10.774,2.111044,822,822.0,,,,,,,
2026-06-17T10:10:10.775,2.112325,911,911.0,,,,,,,
2026-06-17T10:10:10.776,2.113294,1162,1162.0,,,,,,,
2026-06-17T10:10:10.777,2.114234,1119,1119.0,,,,,,,
2026-06-17T10:10:10.778,2.115342,1110,1110.0,,,,,,,
2026-06-17T10:10:10.779,2.116040,1175,1175.0,,,,,,,
2026-06-17T10:10:10.780,2.117012,1626,1626.0,,,,,,,
2026-06-17T10:10:10.781,2.118141,3683,3683.0,,,,,,,
2026-06-17T10:10:10.782,2.119219,3681,3681.0,,,,,,,
2026-06-17T10:10:10.783,2.120277,3678,3678.0,,,,,,,
2026-06-17T10:10:10.784,2.121163,3678,3678.0,,,,,,,
2026-06-17T10:10:10.785,2.122410,3676,3676.0,,,,,,,
2026-06-17T10:10:10.786,2.123301,3679,3679.0,,,,,,,
2026-06-17T10:10:10.787,2.124222,3683,3683.0,,,,,,,
2026-06-17T10:10:10.788,2.125361,2852,2852.0,,,,,,,
2026-06-17T10:10:10.789,2.126371,1310,1310.0,,,,,,,
2026-06-17T10:10:10.790,2.127223,663,663.0,,,,,,,
2026-06-17T10:10:10.791,2.128156,667,667.0,,,,,,,
2026-06-17T10:10:10.792,2.129119,1763,1763.0,,,,,,,
2026-06-17T10:10:10.793,2.130283,3034,3034.0,,,,,,,
2026-06-17T10:10:10.794,2.131316,1419,1419.0,,,,,,,
2026-06-17T10:10:10.795,2.132321,0,0.0,,,,,,,
2026-06-17T10:10:10.796,2.133331,170,170.0,,,,,,,
2026-06-17T10:10:10.797,2.134218,3681,3681.0,,,,,,,
2026-06-17T10:10:10.798,2.135338,3679,3679.0,,,,,,,
2026-06-17T10:10:10.799,2.136336,3678,3678.0,,,,,,,
2026-06-17T10:10:10.800,2.137335,3677,3677.0,,,,,,,
2026-06-17T10:10:10.801,2.138190,3676,3676.0,,,,,,,
2026-06-17T10:10:10.803,2.139756,3678,3678.0,,,,,,,
2026-06-17T10:10:10.803,2.140121,3682,3682.0,,,,,,,
2026-06-17T10:10:10.805,2.141448,3681,3681.0,,,,,,,
2026-06-17T10:10:10.805,2.142166,2851,2851.0,,,,,,,
2026-06-17T10:10:10.806,2.143198,1368,1368.0,,,,,,,
2026-06-17T10:10:10.807,2.144159,639,639.0,,,,,,,
2026-06-17T10:10:10.808,2.145118,1122,1122.0,,,,,,,
2026-06-17T10:10:10.809,2.146086,2176,2176.0,,,,,,,
2026-06-17T10:10:10.810,2.147161,2759,2759.0,,,,,,,
2026-06-17T10:10:10.811,2.148176,435,435.0,,,,,,,
2026-06-17T10:10:10.812,2.149080,1,1.0,,,,,,,
2026-06-17T10:10:10.813,2.150069,854,854.0,,,,,,,
2026-06-17T10:10:10.814,2.151091,3679,3679.0,,,,,,,
2026-06-17T10:10:10.815,2.152077,3681,3681.0,,,,,,,
2026-06-17T10:10:10.816,2.153091,3679,3679.0,,,,,,,
2026-06-17T10:10:10.817,2.154080,3679,3679.0,,,,,,,
2026-06-17T10:10:10.818,2.155165,3678,3678.0,,,,,,,
2026-06-17T10:10:10.819,2.156248,3679,3679.0,,,,,,,
2026-06-17T10:10:10.820,2.157215,3682,3682.0,,,,,,,
2026-06-17T10:10:10.821,2.158381,3295,3295.0,,,,,,,
2026-06-17T10:10:10.822,2.159281,1421,1421.0,,,,,,,
2026-06-17T10:10:10.823,2.160354,112,112.0,,,,,,,
2026-06-17T10:10:10.824,2.161278,1,1.0,,,,,,,
2026-06-17T10:10:10.826,2.162444,739,739.0,,,,,,,
2026-06-17T10:10:10.826,2.163166,1919,1919.0,,,,,,,
2026-06-17T10:10:10.827,2.164097,1746,1746.0,,,,,,,
2026-06-17T10:10:10.828,2.165079,1,1.0,,,,,,,
2026-06-17T10:10:10.830,2.166456,1,1.0,,,,,,,
2026-06-17T10:10:10.830,2.166992,1180,1180.0,,,,,,,
2026-06-17T10:10:10.831,2.168093,3679,3679.0,,,,,,,
2026-06-17T10:10:10.832,2.169119,3679,3679.0,,,,,,,
2026-06-17T10:10:10.833,2.170107,3679,3679.0,,,,,,,
2026-06-17T10:10:10.834,2.171102,3677,3677.0,,,,,,,
2026-06-17T10:10:10.835,2.172088,3678,3678.0,,,,,,,
2026-06-17T10:10:10.836,2.173080,3681,3681.0,,,,,,,
2026-06-17T10:10:10.837,2.174119,3682,3682.0,,,,,,,
2026-06-17T10:10:10.838,2.175062,1786,1786.0,,,,,,,
2026-06-17T10:10:10.839,2.176125,110,110.0,,,,,,,
2026-06-17T10:10:10.840,2.177145,1,1.0,,,,,,,
2026-06-17T10:10:10.841,2.178158,1,1.0,,,,,,,
2026-06-17T10:10:10.842,2.179067,866,866.0,,,,,,,
2026-06-17T10:10:10.843,2.180087,2187,2187.0,,,,,,,
2026-06-17T10:10:10.844,2.181144,1155,1155.0,,,,,,,
2026-06-17T10:10:10.845,2.182075,2,2.0,,,,,,,
2026-06-17T10:10:10.846,2.183138,1,1.0,,,,,,,
2026-06-17T10:10:10.847,2.184076,2863,2863.0,,,,,,,
2026-06-17T10:10:10.848,2.185089,3679,3679.0,,,,,,,
2026-06-17T10:10:10.849,2.186040,3678,3678.0,,,,,,,
2026-06-17T10:10:10.850,2.187125,3679,3679.0,,,,,,,
2026-06-17T10:10:10.851,2.188048,3678,3678.0,,,,,,,
2026-06-17T10:10:10.852,2.189128,3679,3679.0,,,,,,,
2026-06-17T10:10:10.853,2.190096,3682,3682.0,,,,,,,
2026-06-17T10:10:10.854,2.191093,3681,3681.0,,,,,,,
2026-06-17T10:10:10.855,2.192070,2216,2216.0,,,,,,,
2026-06-17T10:10:10.856,2.193093,862,862.0,,,,,,,
2026-06-17T10:10:10.857,2.194082,269,269.0,,,,,,,
2026-06-17T10:10:10.858,2.195096,728,728.0,,,,,,,
2026-06-17T10:10:10.859,2.196032,1651,1651.0,,,,,,,
2026-06-17T10:10:10.860,2.197112,2330,2330.0,,,,,,,
2026-06-17T10:10:10.861,2.198096,336,336.0,,,,,,,
2026-06-17T10:10:10.862,2.199109,3,3.0,,,,,,,
2026-06-17T10:10:10.863,2.200155,256,256.0,,,,,,,
2026-06-17T10:10:10.864,2.201080,3679,3679.0,,,,,,,
2026-06-17T10:10:10.865,2.202084,3681,3681.0,,,,,,,
2026-06-17T10:10:10.866,2.203077,3679,3679.0,,,,,,,
2026-06-17T10:10:10.867,2.204030,3679,3679.0,,,,,,,
2026-06-17T10:10:10.868,2.205096,3678,3678.0,,,,,,,
2026-06-17T10:10:10.869,2.206082,3679,3679.0,,,,,,,
2026-06-17T10:10:10.870,2.207140,3683,3683.0,,,,,,,
2026-06-17T10:10:10.871,2.208092,2831,2831.0,,,,,,,
2026-06-17T10:10:10.872,2.209325,876,876.0,,,,,,,
2026-06-17T10:10:10.873,2.210308,1,1.0,,,,,,,
2026-06-17T10:10:10.874,2.211342,1,1.0,,,,,,,
2026-06-17T10:10:10.875,2.212023,262,262.0,,,,,,,
2026-06-17T10:10:10.876,2.213142,1323,1323.0,,,,,,,
2026-06-17T10:10:10.877,2.214376,1625,1625.0,,,,,,,
2026-06-17T10:10:10.878,2.215263,2,2.0,,,,,,,
2026-06-17T10:10:10.879,2.216363,2,2.0,,,,,,,
2026-06-17T10:10:10.880,2.217352,596,596.0,,,,,,,
2026-06-17T10:10:10.881,2.218093,3679,3679.0,,,,,,,
2026-06-17T10:10:10.882,2.219076,3681,3681.0,,,,,,,
2026-06-17T10:10:10.883,2.220119,3679,3679.0,,,,,,,
2026-06-17T10:10:10.884,2.221137,3678,3678.0,,,,,,,
2026-06-17T10:10:10.885,2.222157,3679,3679.0,,,,,,,
2026-06-17T10:10:10.886,2.223101,3682,3682.0,,,,,,,
2026-06-17T10:10:10.887,2.224089,3238,3238.0,,,,,,,
2026-06-17T10:10:10.888,2.225106,525,525.0,,,,,,,
2026-06-17T10:10:10.889,2.226067,1,1.0,,,,,,,
2026-06-17T10:10:10.890,2.227135,2,2.0,,,,,,,
2026-06-17T10:10:10.891,2.228113,1,1.0,,,,,,,
2026-06-17T10:10:10.892,2.229216,661,661.0,,,,,,,
2026-06-17T10:10:10.893,2.230132,1903,1903.0,,,,,,,
2026-06-17T10:10:10.894,2.231073,1407,1407.0,,,,,,,
2026-06-17T10:10:10.895,2.232130,1,1.0,,,,,,,
2026-06-17T10:10:10.896,2.233132,0,0.0,,,,,,,
2026-06-17T10:10:10.897,2.234245,1567,1567.0,,,,,,,
2026-06-17T10:10:10.898,2.235140,3679,3679.0,,,,,,,
2026-06-17T10:10:10.899,2.236043,3681,3681.0,,,,,,,
2026-06-17T10:10:10.900,2.237058,3680,3680.0,,,,,,,
2026-06-17T10:10:10.901,2.238431,3678,3678.0,,,,,,,
2026-06-17T10:10:10.902,2.239040,3680,3680.0,,,,,,,
2026-06-17T10:10:10.903,2.240032,3682,3682.0,,,,,,,
2026-06-17T10:10:10.904,2.241096,2524,2524.0,,,,,,,
2026-06-17T10:10:10.905,2.242104,181,181.0,,,,,,,
2026-06-17T10:10:10.906,2.243074,0,0.0,,,,,,,
2026-06-17T10:10:10.907,2.244111,1,1.0,,,,,,,
2026-06-17T10:10:10.908,2.245110,1,1.0,,,,,,,
2026-06-17T10:10:10.909,2.246061,908,908.0,,,,,,,
2026-06-17T10:10:10.910,2.247137,1967,1967.0,,,,,,,
2026-06-17T10:10:10.911,2.248053,527,527.0,,,,,,,
2026-06-17T10:10:10.912,2.249054,1,1.0,,,,,,,
2026-06-17T10:10:10.913,2.250086,1,1.0,,,,,,,
2026-06-17T10:10:10.914,2.251093,2620,2620.0,,,,,,,
2026-06-17T10:10:10.915,2.252063,3679,3679.0,,,,,,,
2026-06-17T10:10:10.916,2.253093,3678,3678.0,,,,,,,
2026-06-17T10:10:10.917,2.254121,3679,3679.0,,,,,,,
2026-06-17T10:10:10.918,2.255074,3679,3679.0,,,,,,,
2026-06-17T10:10:10.919,2.256105,3681,3681.0,,,,,,,
2026-06-17T10:10:10.920,2.257056,3462,3462.0,,,,,,,
2026-06-17T10:10:10.921,2.258004,707,707.0,,,,,,,
2026-06-17T10:10:10.922,2.259111,2,2.0,,,,,,,
2026-06-17T10:10:10.923,2.260124,0,0.0,,,,,,,
2026-06-17T10:10:10.924,2.261061,1,1.0,,,,,,,
2026-06-17T10:10:10.925,2.262076,2,2.0,,,,,,,
2026-06-17T10:10:10.926,2.263101,518,518.0,,,,,,,
2026-06-17T10:10:10.927,2.264014,1243,1243.0,,,,,,,
2026-06-17T10:10:10.928,2.265021,1,1.0,,,,,,,
2026-06-17T10:10:10.929,2.266013,2,2.0,,,,,,,
2026-06-17T10:10:10.930,2.266995,495,495.0,,,,,,,
2026-06-17T10:10:10.931,2.267992,3526,3526.0,,,,,,,
2026-06-17T10:10:10.932,2.269118,3682,3682.0,,,,,,,
2026-06-17T10:10:10.933,2.270078,3679,3679.0,,,,,,,
2026-06-17T10:10:10.934,2.271033,3678,3678.0,,,,,,,
2026-06-17T10:10:10.935,2.272062,3679,3679.0,,,,,,,
2026-06-17T10:10:10.936,2.273068,3683,3683.0,,,,,,,
2026-06-17T10:10:10.937,2.274109,3067,3067.0,,,,,,,
2026-06-17T10:10:10.938,2.275139,402,402.0,,,,,,,
2026-06-17T10:10:10.939,2.275993,2,2.0,,,,,,,
2026-06-17T10:10:10.940,2.277180,1,1.0,,,,,,,
2026-06-17T10:10:10.941,2.278077,1,1.0,,,,,,,
2026-06-17T10:10:10.942,2.279033,1,1.0,,,,,,,
2026-06-17T10:10:10.943,2.280008,817,817.0,,,,,,,
2026-06-17T10:10:10.944,2.281033,1033,1033.0,,,,,,,
2026-06-17T10:10:10.945,2.282038,0,0.0,,,,,,,
2026-06-17T10:10:10.946,2.283058,0,0.0,,,,,,,
2026-06-17T10:10:10.947,2.284029,1311,1311.0,,,,,,,
2026-06-17T10:10:10.948,2.284996,3681,3681.0,,,,,,,
2026-06-17T10:10:10.949,2.286102,3679,3679.0,,,,,,,
2026-06-17T10:10:10.950,2.287050,3679,3679.0,,,,,,,
2026-06-17T10:10:10.951,2.287985,3679,3679.0,,,,,,,
2026-06-17T10:10:10.952,2.289107,3679,3679.0,,,,,,,
2026-06-17T10:10:10.953,2.290017,3682,3682.0,,,,,,,
2026-06-17T10:10:10.954,2.291034,2252,2252.0,,,,,,,
2026-06-17T10:10:10.955,2.292099,3,3.0,,,,,,,
2026-06-17T10:10:10.957,2.293526,1,1.0,,,,,,,
2026-06-17T10:10:10.957,2.293932,1,1.0,,,,,,,
2026-06-17T10:10:10.958,2.295055,2,2.0,,,,,,,
2026-06-17T10:10:10.959,2.296081,306,306.0,,,,,,,
2026-06-17T10:10:10.960,2.297099,1443,1443.0,,,,,,,
2026-06-17T10:10:10.961,2.298133,687,687.0,,,,,,,
2026-06-17T10:10:10.962,2.299076,1,1.0,,,,,,,
2026-06-17T10:10:10.963,2.300003,1,1.0,,,,,,,
2026-06-17T10:10:10.964,2.301075,2340,2340.0,,,,,,,
2026-06-17T10:10:10.965,2.302071,3681,3681.0,,,,,,,
2026-06-17T10:10:10.966,2.303081,3682,3682.0,,,,,,,
2026-06-17T10:10:10.967,2.304144,3679,3679.0,,,,,,,
2026-06-17T10:10:10.968,2.304985,3679,3679.0,,,,,,,
2026-06-17T10:10:10.969,2.306053,3679,3679.0,,,,,,,
2026-06-17T10:10:10.970,2.307118,3684,3684.0,,,,,,,
2026-06-17T10:10:10.971,2.308082,1594,1594.0,,,,,,,
2026-06-17T10:10:10.972,2.309011,1,1.0,,,,,,,
2026-06-17T10:10:10.973,2.309969,2,2.0,,,,,,,
2026-06-17T10:10:10.974,2.311082,1,1.0,,,,,,,
2026-06-17T10:10:10.975,2.312019,117,117.0,,,,,,,
2026-06-17T10:10:10.976,2.313104,1167,1167.0,,,,,,,
2026-06-17T10:10:10.977,2.314056,1989,1989.0,,,,,,,
2026-06-17T10:10:10.978,2.315044,466,466.0,,,,,,,
2026-06-17T10:10:10.979,2.315993,2,2.0,,,,,,,
2026-06-17T10:10:10.980,2.317068,571,571.0,,,,,,,
2026-06-17T10:10:10.981,2.318074,3213,3213.0,,,,,,,
2026-06-17T10:10:10.982,2.319068,3681,3681.0,,,,,,,
2026-06-17T10:10:10.983,2.320064,3681,3681.0,,,,,,,
2026-06-17T10:10:10.984,2.321063,3679,3679.0,,,,,,,
2026-06-17T10:10:10.985,2.322060,3679,3679.0,,,,,,,
2026-06-17T10:10:10.986,2.323039,3683,3683.0,,,,,,,
2026-06-17T10:10:10.987,2.323996,2957,2957.0,,,,,,,
2026-06-17T10:10:10.988,2.325017,607,607.0,,,,,,,
2026-06-17T10:10:10.989,2.325977,0,0.0,,,,,,,
2026-06-17T10:10:10.990,2.326964,1,1.0,,,,,,,
2026-06-17T10:10:10.991,2.328002,1,1.0,,,,,,,
2026-06-17T10:10:10.991,2.328136,1,1.0,,,,,,,
2026-06-17T10:10:10.993,2.329989,908,908.0,,,,,,,
2026-06-17T10:10:10.994,2.330980,1254,1254.0,,,,,,,
2026-06-17T10:10:10.994,2.331105,2,2.0,,,,,,,
2026-06-17T10:10:10.995,2.331978,2,2.0,,,,,,,
2026-06-17T10:10:10.997,2.334068,719,719.0,,,,,,,
2026-06-17T10:10:10.998,2.335066,3593,3593.0,,,,,,,
2026-06-17T10:10:10.999,2.336097,3682,3682.0,,,,,,,
2026-06-17T10:10:11.000,2.337022,3681,3681.0,,,,,,,
2026-06-17T10:10:11.001,2.338015,3679,3679.0,,,,,,,
2026-06-17T10:10:11.002,2.339094,3679,3679.0,,,,,,,
2026-06-17T10:10:11.003,2.340037,3684,3684.0,,,,,,,
2026-06-17T10:10:11.004,2.341045,1926,1926.0,,,,,,,
